86656685:Mr_tacoz08
52294985:robotmaster03
28249290:scalyghost121
4970530:santa4321
14670215:Claricealexis
48672336:Ethann_o
53499870:theunknownartist
85059014:CraftyCinnamon
83660966:Mr_TVFace
58152034:spiderjoey80
43880596:NotThePh0enix
69024780:albirac
59892999:59892999
79624764:epiccakeslayer
63607547:meowdoob
36942816:1Pyramancer
71462541:FruityMe1on
68718685:McDucky23
31694768:Bradmad8
23636169:Ash5401
57706758:BeauOSSS
58319592:Uglystacks
87693392:pckIez
22923628:SharpFangLeo
11977215:BoomDarkangel
80734679:bonniecuddles
62461644:eIIys0n
87214780:zuhpram
43011221:trickywentzz
69731115:itsmet0bi
86637665:carsonfilms1
37182067:slender6678
87017853:Lilgamerdude3
38582409:Colliastra
30082909:AngusBouff
76610957:Fumi_Toka
86879251:Jwoxzzz
85093551:sammyhulk
80752284:hellobunny14579
65134653:hutvolt
57752645:ricussi
76212972:MineHero120
23675957:mario84996
85164651:Quindara123456789
66430775:JustAnCrow
63922727:Photac
86676246:roblox_user_86676246
71018693:y0uch
64988877:guccihightides
58569554:reslasher
20891393:xxDARKKnightJohnnyxx
52359645:FortniteDetergent
46295949:Murfvin
55299163:Deedspemon
84903609:N0ts0sleepy
40914437:chubbybunny9000
32116748:JessicaStar15
18731446:yg237
76817710:Eutierriia
25178837:PinkiMisti
48408790:Gorshadd
6915158:denat809
42469389:smily08
88305577:sunshinehp15
87647593:balx23
76656997:ItsMitchellPlayz
76130654:chargedpanic
59647525:IDaisy230
74932884:MrCoolBrady24
72936292:1Iuvia
54056403:Ravazta
76627095:micocanvy1234
77693102:stroop17wafflr
25236518:blazer570
87278886:PreppyHipster
75984202:xxshadowman04
61988692:Youtuberfan201
10253733:HydroBlu
28959924:AMAKISO
8536050:yellowsmoothee
88267915:kweeendarrin
67927323:Brisk_26
87307372:AngelMelodyRose2609
41267442:41267442
73062875:SuperSlime120
31532363:beckyrose2
65491775:Isonic0308
86347599:hungrythor100
15587862:SmokeIoud
39083578:greenswag123
83805861:icelunaris
76628548:BoGButton
80138149:gigaimpact8559
30540339:cynjaro
51492424:waterme1001
84117789:Nimbus_IIC
34149831:matti24
74173485:metalmeka
71197829:maniacbuilder11
55091763:IntrusiveNightmare
4915595:Alooeveraah
34206739:monkeys2424
62040012:Bluejays153
11436869:hunting192
88110531:cochoni22
82584184:thelegomovie10021
56858195:florence1961
86806257:ProdUhhDonn
27909435:luiciul
76948942:Purpleguy4000
35141220:Selm1R
22407588:ninjamastar23
48398485:orange2005
84421719:ultron36004
38232704:tweeteldum
40244758:ZDSzeke1210
71301155:uvohy
76137688:Skylar4242
87873012:LifeIsDuff
30919261:iiLUCK3H
69584170:Creepercat7667
84938377:Kaku_Bakudan197
60293033:Killercreeper09
45677057:g00fballx
86822619:Syrup_Squid
44263297:i_zuru
84193778:krelolox
56934226:tiari456
686321:CRASH91
80262742:gts4m06
24248490:ceceallheart
23603593:iaboy
16134451:LaurelFoxx
81581700:Blesajr
51839269:ShadowingOwl
18905883:iLiveToDie99
44805042:gamerfurno123
6604287:natanel7
45041869:largequille
88435498:blaiser1013
86867928:Charlie_R4C
36076837:christh220
79371253:l3vlt4t3
78552323:goldenfoxy56
37311426:Decivity
72270337:lexielovinR5
43842965:Joshua666777
43755643:spongebobrules1020
69689901:OpusAsmodeus
53683196:Toxic_Lolipop
72303920:vyetcong
78197880:anthonykyi
47673268:cody42605
44889279:PalaceCat
81812806:SpongeBoob46
10743394:heyseith
29631224:ResidentSeaBunny
86632815:megaman2134567
85437959:peiixes
160988:garrywilly15
58943023:RobloxianWizard14
59858373:bart3344
52344919:bonecrash756
71858765:raisohn
56032450:pigglover911
63818609:AidenRayne
41424617:DennisUzumaki
86074139:OFFICER_BALL5
22713148:DoggyHugger206
52098389:taffty
48601768:PolakBaller123
79934104:apexpredatdor2123
82008732:DearStorm929
31293292:GenuinelyAJ
21936478:sammie142
35935216:lilben5631
60997491:60997491
36804189:36804189
74948795:DrayMagic
83011128:BeamingStarsz
47547302:sonamy890
49554113:Sliceof_Pie
85804071:hollywoodrockstar32
50871389:EdwinCastro10
39684536:Angelj1224
25200607:YoshiMaster119
79220429:Xx2DUCKSQUAD2xX
37656015:10onegirl
70280941:rasberryface453
75463895:Al3x_Ter
34307986:La4aru5
78386972:TrickoNaught05
57214222:chezdip
87589315:alimax345
83262153:coolkidder123456
24840205:reozah
43009726:iliketrains48
47710300:Rayvh3n
50101888:xXPot4toBoyXx
10131213:http_gory
755082:ragglefraggle5
58912268:TheExarKunn
64104558:Darkywolfy199
52328236:mineblox1354
83162870:kaylava34
54141773:Amro1700
29331458:kewpie_x
61991498:gremalinyeoki
71039915:Twisted_Identity
63285307:Bacon_Wrapped
87458739:noel3510
25578035:smartlogan9
14184283:PEEF4RT
51073335:222chloe
35899678:Stanley2343
73731555:bahstyihjr
44530402:xXUnknownEmberXx
46940295:alannamv
48406228:sakta
78224178:TwistedPixelator
83975600:YOUAR3BAD1
28072678:asome85
38641119:Billy22100
88258325:ghost_toast112
81670732:Aiaia4
40821719:Gooskie
70628457:KristaWasHere
36370024:frank12910
61020974:itslytra
85615593:1XRJJ
14252763:0m1
38400560:MrPicklemen
2190763:GoofyBuni
73775871:unicornimanitar
35989691:bokenham
35478745:trgfhgfhghgnhfghnght
4545969:CoachQuinn
23351822:123zane
48174718:m07h_xD
40099426:KrypticDusk
39502692:carlosrock0987
49826098:caz06
17449835:urbanizedmedal
42891769:happyhappycl0ver
76652604:illkiIlu
41151731:Kurojakkaru
87267477:IndominusREX2121
57322385:Ayden20014
79722028:schploinkus
35853755:lovestrucked12
66271969:gointothestorm
39351653:coollucasfoot
60094423:C3metery_W1nd
81450830:MisterLuigy
51008050:thomas_huh
3041233:HardReckonedHunter
453778:dude0730
60587598:azain13
55744382:downfal1
6947449:pokejam56
78877278:Brylan3
32181562:WadTheWad
42327588:TitanicCollier
41168303:sweettylerpro
56966242:TheHotelDuck
73251355:pedro2304
79455470:cfenty
15209732:patrolee
14389892:f4rhaze
76281649:Velociraptor200
70084075:SadCash
36930576:Bradster0812
74184862:arelirocks231
20318896:Danielle39
46442991:MINEBOY448
72349206:angrybirds1534
76009972:qxenxo
88364406:sreder101
76401964:Yung_Squid770
75124344:imwatchingyou723
70622168:IDoHaxBruh
38504041:detaching
83138615:CTrain614
59738077:Ginger_Crocs
45630314:nooklearrr
81760106:ninweb
46288340:iAlexSWAGG
8025768:bettermarrymoocow
27981974:zara239
24009024:bumblebees1handman
73686979:xXnick74611Xx
76289047:AHyenaDerp
22824344:ash7711
52688496:noelis1
83891891:NiclaInABox
22784129:QuitaMoz
21104316:OhHeyImCJ
58163391:OrYc
41214954:Jacaremal
65296267:Neytan123
72641336:Makasetop
54251578:kellyjameselm
22625156:lamesophiee
53053256:eaglelawyer
85563438:cyclmex
73691768:fizzyritzz
74468954:awesome9393939393
53711111:iornGuy12
47878527:karmaister
74014069:Grim_Dev200
38642431:cowtipper132
71058455:javair134
48279886:miloitic
87083423:prplyoshi
77871383:ArcticAnt102
3278913:robcindy
42346075:Chris10091
54187820:iserenity835
27259413:lizard7120
53616617:Zelderin
15831757:vanolite
59068351:yadiel2006
66832570:Frostiees
29085647:a16623
73258657:RomeoRich
15432233:hex489
51813126:abjaco
34955447:myccym
80124054:lucaspingo
51158746:bunnyvoorhees
47727394:Gojira04
49157652:V1_MCB
25259907:TheRainyNights
64238199:hopethedog
86282574:danibrazil
17270837:TheNewNeonShadow
44445273:drunyon05
68491186:sixtyfork
12114585:8u7tktb077b37gp6zai0
65825734:TedTheLord
80266694:playerguy1243
79870067:Sxfferiing
9611046:MonkeLoves_Tacos
84394243:chiffonbarly4
51869389:DeathToTheAngels
70204393:Koilpins
59903281:yumyumbeen
64249583:tsucchini
29068400:biggun37
48205831:TheGreenNinja_03
31736603:Snorbaxt
63656032:Judabzz
69172025:brysiisdante
52446409:boogieheadmauri
73289813:catscookies
52543882:kurogimi
74710606:Kanzen_n
48377417:Bethany0304
51073660:Morrzw
54111682:jumpingTracker
70227763:Mercorok
81646523:Amy123232
82752190:GameMasterHD5057
64481755:Arduerian
83224193:naiyalynn
32539411:unepn
87443660:MineUniverse38
43122645:43122645
11485631:djgirlrocks12
42383887:ldfyxnl
55145193:55145193
53604002:abraham1237
29559112:CFgamer2004
81524914:amirsdabest
1051140:Luke0601
74599300:DiamondMartin2014
45323751:lawlietzluvr
71723814:IsaacisCool88
84407915:DoctorLSBN
45792187:skylind
46131383:blissssssyy
52951536:aidenrocknrolls
61557303:March9llo
74352520:skylarzone
45534753:mone9
79298003:NavyHelmet
48581316:kacperixxx12
81739678:760GAMERS
69808358:BGGnate
435853:ctalb4465548
43128386:ROBLOXMovieMaker2013
55779825:corecore1500
66174234:Pitifvl
25048685:Luigimanguy
41411796:war167
83646231:SilverCreeper34
71067194:bestmagition101
39168959:kmckay01
87037637:AccountOmega
85850340:connoryoshy
41623369:JadenXGaming_XG
61094031:loveabler2323
74257686:ImCosmicNixx
17497989:NeonPencilMustaches
13155170:seancollins14
60702993:ItssAdriaan
82007199:theninja5401
11862489:p1kchuburger
48597181:HeroValentine
64924761:Erunidex
14572791:TheShadowChemist
66849121:BobbehTheBest
79269208:supermidnight1111
74966616:reyluvsmango
39000121:BabyLaceyGirl
46707069:stiff45
53961177:Rigx
40922510:beeow05
66681915:coolest4343
40247050:Matthew7_6712
71811581:star_dews
68718536:NinjaJared12349
5367291:miyukaia
41309777:muffinsaregood207
78476030:ZAPS8N
32915722:Mysteriousstar123
55403195:Botz_l
73096688:VerifiedGh0st
74360058:lolo822
44391989:twiztiiid
49906920:ickyvicky_37
25118248:Heatseekerlord
45000269:Inf1n1teSp1r1t
78005076:greenj201422
86414283:ChrissyM1ssy
3180354:KindaAngelicc
9112041:Solarbonkz
34805007:ValeeineVT
57144650:CielaTrashy
80641190:LVC30_GOD
18164964:SuperMario0226
31153786:Lerogin
42667749:ONE_EYEDGH0ULL
40003154:SaltedGr8p3s
62730474:faeriexore
52240850:benja585
10251485:AngriestBear
67835259:J_adx
76955905:KingPazuzu616
23915825:Staadis
67762052:Cjounior
112144:112144
70389072:Kymenbinto
23779726:akp2003
62821982:ThundersRoar777
70419606:Radatial
476406:pengueno
62598555:Moon_Phased
33006928:MattStylesNYY
58409439:minerdan100
56293631:rockmonster05
27202794:Blackopsdad24
53072218:oxml
61634660:wweskerr
87369172:YourSealedAngel
58637729:tioppxo
85016782:RedGilberto96
59621711:Dreven04
18080151:ItsTums
63031500:kingninja456
73909788:myjessagirl0315
88142602:ReaperReverie
86532562:luigi6432
86742659:lashlyo
78677439:r3ntl
39216856:JulaMagula
82039166:yuriluver42069
76449605:awesomegirlie124
88380781:Krillaxes
39110382:jared21345
64436459:italianwapp
84763309:AstralGemz
65169255:BIu_Raven
66839265:hawkstermonster
59614224:JayDaFelon
81678161:iiUltraSnipes
38463702:ACTIVEWARZONE
18325455:ickylisha
45324915:TheGreatM10
9095212:MichaelJacksonHungry
80222631:lollipopgal243
15264091:15264091
73787510:sbvsabjb12
33314325:zexyme
74746993:monsterultrared
47081034:Chungusnotic
63689498:neetagudado1
32805105:thaishawn111
29350856:Chief5005_YT
38371971:vipman3046
47813004:rjandis
47144228:NotRetract
75822666:Ghost_5409
51712165:LostFeels
71416486:enderbrine221
85492555:austinpeterson12
24743123:bluebatman2
19854668:citrussdeer55
87853004:deltro5602
39516864:IssaDreams
53706930:Dankerman101
50868613:jtfqwe
87661140:lazytiron
72952187:kaylemdink
62841674:Sacro_Cuore
37720162:Etherias
65793390:Iggyz_CoffeeGum
17095899:shvne0077
287711:starsfadetoo
79074496:Daniilka2009
17795864:Skyfighter015
81969930:ChickZiggy
39732082:GamerguyMatt
411347:flamingmoochoo8
25513466:peacelovehope10
86725255:86725255
36419529:nepter1
72573274:Tummachan
73246199:Its0_0karma
39872192:Reshiram206
31777755:braxlov
75139431:Aaliyahaha
85407573:gumIock
19564942:RobloxGamesCritic
86978945:BLOCKMAN2614
59089951:Sanakumq
69861256:glassegirl
3719568:masterpitt
49108299:iiVaqueroii
76010:darthlover
42670615:BlueberryCakeFennec
12614242:ixixixxittxxxtitttxt
66620963:oceane19
26034856:noodledude1423
58073463:SuperKennick
41233943:ko1dkaos
86436798:maddoxgtz
2283318:TheBlackJediiii
75592305:rochac16
65851189:flamelier
20529148:FireCar123123
71422872:Elija14221
56598316:Magic91011
55046247:Kenzie20132003
31903046:AlienSmellyBeans
54148636:lukevenegas64
55461848:YouFoundGabe
47053521:fIoorpickle
31373884:Jacksonc6
15948140:cooldudekyle73
75029566:b4tman40
78680815:ReverendHusk
72422477:yayea123
56805688:The_UselessButton
58395208:Stabbackninja21
87050046:Emilyp8
21043663:trey221fox123
77538258:makaliah2
85888495:TheOnIyGingy
74309886:Samirblox
67745555:quinshae22
58535821:kr0wzy
52973680:Unixir
32413651:footnitefunnies
45901646:onlyjwl
72588232:ConnerLovesYou
43469513:tana12334
38386914:bastiaan12345
88018711:zanedane
58120942:ChrisJRequiem
70736761:missylove123456789
59555782:lilytiger3
3710116:AssistantJared
45916289:bryndee12
48270997:iboundaries
74447152:rt2145
53031944:fludyc
58562554:yuenkai
16836485:EpicPickleLover
44280372:BafooneryFrogs
60280576:wahabko123
62155028:Ri_Quaza
11910282:b0untyhunta
83206057:ScrubbyDub3520
46590854:hivebl00d
15226477:boofinate
40199410:trilla3000
29076353:29076353
73152979:Jokerforever756
72329029:grayfish84
40844550:Imlol123123
84752020:tia2thel
81586884:magicflakes98
62476717:awsomebunny16
73501609:TheGamingCountryYT
36476608:robloxdanielg
19101160:OliviaBieber
67043444:TerminatorSlothh
73866673:iCaus3Lag
82966931:angeloverfromheaven
53316520:laloboss123
