47866346:alexroselamer
81178:TetraManagerBesttree
5822625:retnuhWD
19142085:Mikaylasdreams
47557719:scullsmiler
23145850:krabbanomalous
86493503:ryzenlegend
41666155:JosM5
4734573:theshane1998
30988413:SomeRandomDisease
39302917:trentonfavrow
15061893:Razarshard
78379445:Starcrafter1234567
37947394:b_ttomfrag
78152961:mulanwarrior4444
58290425:58290425
86640300:larag26
23425426:Alexthebatman
62956950:Halogehn
31636539:JuJai
52867856:tourformore999
26641757:theh0lly
83400789:ThanksRizen
53485794:Pessimistis
71147591:sseulbi
53694750:ZaneDaZebra
41273053:DesencedIntel
40552317:AbbaZabba330
85701772:eoiths
84039253:BAJANBACCAUS
45757414:rizzlekas
41922715:9lacs
78884001:BaconWeb
81579060:BroNoobMaster
77280402:YourD3mon
80330080:jarieldiaz
57968332:evstar7
49873420:sparkybiff
6629888:tihy
53922862:cboss500
83426146:Kirby4833
76699800:Its_MarshMinnow
74573522:blacksmithdeath123
33416516:isuckatminecraft
50366320:TheBymerTV
3990434:cufzi
38783515:DARKDR3AMS
49505630:casper3103
73921391:floramac312
64958837:OceanSlice
81429590:CayleeO_O
25749335:Tropicalmystery
39124088:workclIockc
35779053:ian1532
81724103:VxniishedDino
3465953:dohotbolt
34740417:daniel22333alt
53885981:Schnitzel_l
39994217:DandyCandy802
88482237:oblin_v
36082847:Accusare
25782591:SlushiiGirls
50787133:pexf
1401546:YesItsCWC
49486375:luigibros007
36975835:HaroonHasanAsghar
44498915:SapphireJoyride
55991596:thejui
82435137:crazykb123
9011237:Qu1a
28741739:Pythiay
1814455:babyluigi221
75728663:tuxedosniper
85757673:MythicLez
44232039:MintySoul
68974307:lstrader4444
2460718:Jaiient
59829286:KUR00KEN
41258800:richard15209
77422994:billysill
65429892:Hezari
41694753:Garnaken
82211735:coIdscars
84390456:Ramaron
3350675:homiebree
37255441:Caeleesi
53989953:corbin1253
7229644:sadhalolord2
58346099:MadamMagick
38034929:Mike0831
86732048:ZeroMizKun
69895177:SuperJ004
75719757:girlygamershelly
15991119:Parker_Sigmon2004
65693440:halofour789
74939976:SaltiCee
47001996:prebenvedo
69244195:Atsekoi
10008020:Cellophilos
52857786:Random1339
23251545:VaIorus
74711238:TriLazer
87993110:roverfirerush
86875268:MrAnders5
55971921:zMeester
74995279:KeganC360
40538871:popx9
71824640:xarticci
40863035:cuydan
87189353:DominOsix
83098208:xrtm46
20991837:R3DS3A11001
69809856:JRod_521
57476925:JordanFryeRocks99
20239729:bigquiche
51654791:Arlichee
18230441:RichWaterFlame
24830816:iFrozenSherbert
68684773:Icanzus
71213260:moldybeastkiller9827
62882181:62882181
36911421:PurpIeChills
66656253:Teearadactle
4748821:Lecarus
62828581:Tobeqz
9326970:Nothing_Important
69582711:COUNTBLECK1205
55534888:mlhunt900
30588074:TwasJustADream
35523338:miltasso12
17626403:17626403
81900718:wihmsy
62205676:musicalkittykat
42303504:SecurityH
29615067:OIibee
36233387:FallonCarrington
8311179:LeftToDread
60863828:realTesla_X
68422599:RamenisNoodle
39273794:NicheLilVibe
33798564:Heliophxc
69501994:Melonnths
29814554:Luxlty
81987994:HumbledVibes
60448539:DistractedCookie
87941115:ASilentSymphony
32140672:Itvly
63440122:haileysabode
3956519:ava123321
77507437:jeremiahvanwinkle
80850325:skittleslover315
74267891:Fear5580th
64511033:kegre18
42797847:42797847
7830254:Jullius_Seizure
55714748:Vyridi
32024211:hodrod26
52475600:uwauawaa
42937460:A_Atomsai
72631398:NoahBear2009
63717055:AquaAxis
17258241:Gryrix
31138389:makamillionn
61133505:LostAero
77147381:Im_Spooks
60754813:Tessa1238
17680883:sweatpie11
57199788:crocetti
50191489:mayson09
40583919:0Asheon0
78734723:tucablaze
79210744:poisonxzy
52366340:Blu_ye
76011675:Kirbyfield
25070865:Arcanebears
52376201:enzodingledash
123894:323KM323
85725332:FridayTrooper6123
39503699:o_Boom
48609995:Hytoxic1
56174062:GreenLiciouss
6746815:TetraDev
1205726:Unspoken_Reality
79969783:Purplemage572
32911084:Obsoletus
22310265:Aulovas
102888:Bergan
74322783:apollos_void
31506074:BlubDr
87385809:StrawbryShake
63980611:rihannalovescandy
65741605:MiddyGalaxy
457339:Brattsz
39250513:bluest_flame
55329753:grcteful
29471058:6f7
74024617:gagekl
19097555:ashleygoldenriver
100686:Haylin234
55987482:ipunchmywaIIs
16175056:BloodyRedRoseKiller
27860300:rabidpallaye
88081128:TMGID
65058184:blueek
35681845:iiCactus_Rxse
73573811:isaacasplund
60352856:junhao54321
51872447:Mexorel
84810335:kattypurry600
79168002:loserclownn
80667706:thisguygotsajob
71307712:7vmx
48247131:Just_Kanji
86942895:Akshay12345678
6251049:ultrasupertay
87715367:xxwolfkingx
8351803:MostSinisterCreature
28432845:kornia1
28093801:sup912123
79858739:Nesquickhehe
40513479:jennnuh
42622583:AspenForest
67313871:Chrothium
58245641:RickyFastly
24445118:teddibiase01
76324117:crazycrazycat5000
80537061:ehmillee
63523522:Willem500i
68252493:EG0_OWL
87631860:Bubbl3GumBee
323583:WhimsyDragon
26640950:nickschapter
17997592:Mimikkyuii
35005191:iiSoaringWings
78466511:Aria_Flare
86888773:J4m1z
87073138:ttriitt
4640467:catfooodd
78658285:Dark_1ord7027
9477698:RampagingBohner
29984815:bIckroses
56891854:katin142
48326461:Dufl
47553735:OverdoneJoke
5880418:whitetiger0101
9886323:xoKimmy
42435459:iiFlameDemon
17975189:x_BSG
44023937:aneyigeorage
21672847:yota2000
16053715:thefluffy123
24838723:nuucks
55709034:AthenaSun
52400426:CrispMornings
68073246:vNiquitaa
73078124:sanrobert
46117792:WhySnowwy247
32223583:armyalexV2
70110826:MincyMichka
81088964:Vortexch
56933238:AzrielGodsbane
78980113:s1eepster
72836647:aesilysn
67119253:iivarae
85394016:artulonn
60296099:InevCymru
77778513:Satans_Teeth
53206679:sendze1
51001321:ekpr2003
61663380:rockoutbell
53148952:yoinkist
38762943:SoundOfSettling
80108163:metalmelusa
69669454:Amazing1908
67712956:FELIPEMONSALVE
46519821:DaIinda
69512318:Lynkszs
46666236:dragonprincesspolly9
39692929:lekiller9000
74991023:elfqueengia
48186437:Jalvaar
70143795:UhhOhhNico
25628316:elijahcoolboy1
12477234:UN56523900
88044462:vsqxx
36553956:Thiyous
87977208:iiRibzyii
35986572:underscore67
48277647:nahte41
11214733:bivv
47250730:CrypticGen
44332887:Chi0908
2576909:boom11
43504514:tagyoureit
26129910:anetta12345
77085011:Joaniejoan
47994329:DominoCoder
2821358:2821358
81403452:austen468468
85188552:handfive
30163773:b0gicz
40300113:nate228
51902942:SkiesTheVindicator
52891428:speedy239308
82054468:N0T_VALENT1N3
59374529:vesnc
58944577:Rayiscool360
43525234:Jordynb9
659542:peanutbutterhead
7840614:pixiegerm609
42723295:Khornates
71839218:NK4Z
42615492:ForkInPlugSocket
88331581:coolguysdont2
37863528:riley8808
17208318:swordresize
34509595:That0neSoggyFry
65142698:jrdlc2008
46101120:RickySan22
64598745:Theguycall0dSam
14486092:FunnySupersonic75
77351512:TheGrand_Executioner
58731359:AtlanticArcher
55030749:ghostfqve
24278522:coldmariods
83971014:QwertyThe2nd
38424263:Nicco9999
86651585:slavip
52544279:freemand5
49155836:GizmoTjaz
25299330:WackyBunz
88202817:RellGotKash
15098780:Bluestar208
88046562:xp_rk
73562299:bereghostisboss14589
72321815:Tabosta
56623437:Tam_Frenzy
20066375:SailorPuck
22763073:jccj1114
46289557:ToasterStroodiez
63898306:iiZxler
56925247:CycloneEvan
66289815:dispinterested
57776614:mandy15135
40497942:JaydenLeo135790
75248767:Xeno_thatfurrytrash
52575664:caelan900
42227692:iiLoky
13849242:JudgeLion
15451399:rexred1345
86178620:UN63170824
768362:Josh104
51541882:Foxscrub
26614842:Frofnir
79968328:Airyux
39256370:endersteve08
68506472:diegoboykin
85082601:XxThe_SupremexX
77242123:NeymarThePro11
57138404:bigbrige
73062207:rowreee
25211293:BentOverRows
73582940:Bobguy3434
77611338:ginaline
13698793:MrQT
77333267:terrariaman20011
73906624:dannydumbgum
36923112:RedLink312
73390049:ghostfireking
558133:Firenarks
56524637:IR0peI
8424637:fyIaan
51610496:Angurista
830921:skeletal
40982044:Npinoy
52849879:Fixioz
22425744:MaverickHudson
47882160:Djpthatsme
53255527:lep_perd
36182635:Naloras
41469708:mochoman500
35361125:robloxercoolbatman
57752706:EA7VV
28595847:Zalful
47260914:Ascendlnq
32033660:TheGusta
72655502:SmolTrashQueen
75488421:Aestxetic_Rxse
59964831:R_ileyDoesntCare
79884309:reek_mill
78544977:plexjex_C
2974578:LiI_Bump
48588632:cr1ng3_c0mpz
30167199:lunnarw
36658180:deltapayback
23250821:ColdHxart
49844899:Anticize
61198067:LimitedDesigner_RBLX
19509478:CynderEatsMuffins
50797894:starIiighted
67364601:JuliannaTheJinx
26649831:G7B
39856373:Trollkevin15
79620153:killa697sALT
53401963:babbasita
1226879:1bubbles101
65603174:2020VZN
13994767:Jkx2
61878327:Eklypso
72213444:WelpBegone
38853383:killermushenboss2
42107807:ThatsHowThatWorks
42879591:BentIeyyy
33733585:coolghostboy12
62064653:Liams_GC
9634414:ii_Kermit
70629870:ProtectiveWareagle07
31920682:kjkendall
586216:zack551
38250890:Daemoin
38630141:SteamDasher
26740315:Revolute
49486537:Anonymousman0_0
38726743:CatsTano
56807802:Siepiie
76163376:Akslider226
48498785:Sencyle
22481775:manickait21
46374850:exhilles
86841298:ChynMay
30271452:hockeypoo
46968161:Sniper25712
33452472:legopowerred
52235645:astrollations
18379389:cedric5TheDude1
4501409:Shusakii
62073146:brysant
17812993:DaringDino
63274487:IMozayo
38621387:CrzTaI
80053849:GraphiteNebula
71584558:iOTPM
66856147:Gemsbie
23627055:tarzymae02
63252119:royo505
27738098:AvyFromDaO
75534450:VirtualWorkclock
70470074:Proxem1c
79871349:iLoveGalactiq
50422789:Pinky0Mindz
31733708:sunshine166
31452205:sarck22
9141895:Oyyx
27531439:12Iegs
43816689:Paralisedd
51987468:Hakuria
45906695:kodie2424
40688038:ComedyPumpkin
27622550:hudhalo123
73074061:Kiittens
762410:wyattguy
73736106:happyjesshk55
32260975:virgo2468
68882958:ACriticalMistake
65326252:hhannahbelle
58386533:Meangirlz
66718748:Crumsz
69421175:RezkiEnds
3733915:issa_SATAN
87737873:ljkenden
67872807:8gumball8
4475511:Leodezz
65229223:Babyblues62806
51669126:terrybin009
