87645290:yemsaiel
75343173:CaraManeir0
58679779:InteWv
34688488:Zoldonn
22369248:soap2011
21234314:Marty1171alt
61567187:OfficerCanada
19275892:unicorn088
62829405:Extr3m3Gam3r
51809260:Encregen
17669256:j890313
87999349:pierat16
79088170:JesterStarhop
67447089:Kitsuko
352173:katsu
44088211:OddNebula
76005755:LuisTheWolfBR
31656539:NekoSlayer21
33449133:20mbobblox
57935883:Prinz_Spee
36373723:kankashi01
45971522:marthshadow
74620077:DominusVx
36230157:sniper11477
53436417:HDSavion
60037579:SupplyKunG
76415511:coolpika200
44751837:diggityhotdawg
80660824:VesomoActual
55728057:universe00000
86706946:Rhesavadis56
57669991:DragonRJ2005
53141341:DiamondJacob
8394380:ProphetDonte
74265338:mewchonlasit
21798:8U8V
62250193:ULTRAWUBZ
84315807:JenniferandXiuying
64995882:Ultifery
70944786:Nithnel
82872628:coisiculo
69092653:Emeraldboi34
33978033:PlayMorrowind
46344547:wiifishi
79292229:UltraGamerLuis
14370818:masterchiefsammy
44453111:Rynoric
31314127:kreilynbrown11127
32596113:ninjaslicer303
41779:kpo
36218480:chandra331
30656808:carlita569
44463711:mochazhi
24864072:gokusayianj5
14718939:brenz51
41119568:Hoshina_Yna
23846214:iNeocrylic
54463860:biggabobbas
54979787:The_Gunny164
48751213:astrid4697
24195074:InsaneDevil19
61569620:Giyn3245
72820080:Kirunly
48829072:GTA1233006
25730128:25730128
59831501:DEWDROP_POP
52297164:skywarp1245
55856934:raigerotigre123
75938396:Mercy4394
34935354:Ikaarosu
31034438:xXILAVILXx
24118207:Arbiter49228
65471132:DashQas
62467296:Eliteaholic
31813192:NeoStar_TheGr8
20024634:uptightdominick
83902901:Martinkame23
13756103:Novarupta
84922433:XXXROROROROXX
32872007:werty14146
83482898:VisuaIIyImpaired
28514252:XacAttack
4695796:zachup100
83975600:YOUAR3BAD1
37776208:ItsJustKev11
54305413:VASK0VA
44660015:Chillcalibur
85601007:callthemic
57628760:A_scend
71719187:PinoyRiccochet
51987734:Whymsikal
66085906:GatoDani500
36035455:YuukaHibikiHayase
58985278:EscurridizoVEVO
4131039:4131039
82042956:endermanzxp
940718:jamiecp
2486505:QueenCosmicx
6695477:kurt258
31146594:sadleon
38120486:Akaho
77478828:Doomquy
78079364:sNamson
14484493:superzeldafan13
22565168:ultramanzero123
74706326:Softboy0nline
9834046:cooldaniel234
6480161:JawonnNT
69503467:kenryu99ryu
41128670:EstoxirOnyx
53381095:SirawitVIP
25183758:alexjosered2
87049893:xUsagi
4438940:arif111
1583237:Superstar_Schrift
19265758:quinny47
55581709:Sw1tchgaming22
47826550:bysral
84282661:Apex_Omar
59161900:SeaSlug404
48538249:undeadreeper5
66624222:Astral_Astarte
20696136:TakoEats
42159521:CreepyTheboss
30301930:Zufoo
65940907:kingasyraf
61446919:Chizuru_Akagi
38395169:emiilichu
76731013:XxbillmasterxX
32236090:ChronoPlays1481
24500833:Etheriral
61741166:spider2352
58293179:VeronicaExellus
48171920:foatballman
18727833:avvhovhk
29732774:V0_Miku
30133796:OffbeatGoodboy
76841735:abella1011
87209737:3_XW
74340150:gamemode639
19188699:SwordResoIve
21007590:UnholyAuth
78759746:SLW_Rinzi
12192712:934fd7r7mp84i1gil3or
87009632:Kay_LK
72676028:ExGodSniper
71252001:Tipical_Oreo
46043563:withdragon
41488105:T9T
68629437:Shiroha_desu
61722896:creeperpower100
56649649:FireAngelz
57600328:Lazarubius
28440911:28440911
36980993:Ienneth
5978038:rfgtnmu
4666880:dragon13131
76798046:RedCastleMountain
56915092:benson57
83112199:maxilol89
22490405:sakarias777
438791:neao
40576701:Zoshiao
57217694:brdonson
83088581:cosmonaut06
58360951:ShiroTaiyaki
64459545:incorrectnoobyass2
25710089:andy45107
41096283:romo987
73343595:xowintrss
55400799:ohumji
38007294:blake342005
7255440:KanaKonpaku
23127337:rozzyro
41467643:skylake_thememe
58900800:mikhailcute
76419597:witherx34
48261453:Fangz250
8745784:Shibimiki
10118683:nicejc123
49264749:JediZa21
79469923:ClosedRadio
