40945720:coolaustin537
54500646:ultraman1905
49865991:connerbrothers
31598955:PolarsBlade
42392414:JusttCryptic
56925184:hashtagepicswag
78059843:NulledIO
13537113:roach6
11531425:lehrznw5mth9odndv5cm
52087608:misstresshappy
78802239:HaloMC008
64925456:TheFlappyBirdMaster2
10758:Sumaka
83020571:Omega3690
81246884:Ai_Xiang
74130206:gsterfinity816
556027:MicrosoftSams
38783515:DARKDR3AMS
86531776:zorroah
86055253:Mrjbot
6887925:assassin0001
62524175:R_wanoski
78718491:rocksfail36000
78241449:7YS3
38581824:ScarrHeartt
47394202:weiyangzhang
43977205:Demjot
44944036:Rq0
30866731:bobbychilds
2498150:liamrjf
55893:123star45
58561517:CYmcraft
8202751:ryanthesilver
77587458:booshka123
81822829:TheXkrackPvP
75782497:smellyprince
39183977:ChimIsNotTrash
78761418:gardar04
19044506:snoopydog12
34101670:Sy_3v
5851229:yoyo2334
623980:glockhandle
18782397:lolzcolt
87946998:offdreaming
47172796:boomerang123456789
58700379:RioSandia
21019786:lewisthebestwargamer
54482527:Pictur3d
62592787:Karcynagen
67574725:CrunchyFlub
50911903:OeyaV2
1939898:stormtrooper789
15628540:Dman11211
58088347:TRONResonance
88521853:ThKingMario11
35070001:destruction5033
83007744:minecraftboss4456
25113013:Pandarian
73329801:Citrus_CJMo
48327519:Shady_Fizz
24942716:dirkpit10
38877408:erw4573
73926813:Aparallax
68562491:lilclarapopstar
7998062:Wasuvius
41955904:Zvriiii
1200227:AheDev
41992439:HoodedBlack
62673343:Danny62123
46957336:Parasox
70796341:godzilla1998died
15991119:Parker_Sigmon2004
65447058:Scream_006
59401007:skoonks
38716801:xbkill10
59740630:Teakyyyy
36926378:C1X
10403543:Foetism
40897152:VkVSWUFO
12303:Gur
12871992:PhoneHike
71170116:Tahlanie11
78380304:Ryanpani
32571776:geste12345
82570967:simionboy456
34948422:A3i0i
82622617:Tegridy_Joe
45152887:mrclone122
84964013:jedmonds9173
73021171:GaelVPZ
35701537:ShadowAnarchy
39784328:calinel333
67328927:8n0
74476587:myusernameisRu
16323682:leman5842
76746339:sbo_e
30173147:mill543
47565796:HaileySimoneaux03
7442058:Kamskiio
86535763:cts_925
20790471:nathanrock9
1847474:crumb
21900495:yi0002
87747751:odmnu
80348520:PhantomDull
79587275:BeanEatingHuman
84483933:BobbysDadsDad
62351324:PurpleCupcake1201
50515648:0jenxx
46752748:charmingcoolcaleb
82330120:lambztein
2495718:jjmagoowallis
53671731:noahdigi
85946855:The_Deceiver
4115602:banjotooie3877
43688312:Zortex462
56755839:sonicthehedgehog1606
34925260:abirhabib
23188128:goodetc1998
1555351:miquel0
51341971:51341971
45087905:MrFreshKanyeWest
21984950:gruntcarmine
76331274:mactop360
6416841:Firelinking
75056121:Mister_Bunny
33328998:dynamitebirthday
56035259:herxjai
75703994:poekoe123
761458:James76
77897366:xtgamer123
21067352:bboy2201
6003793:domo118
41809150:jaymcboo
62573034:travskiiiii
87475972:reid0730
72192045:Arrowed_44
58087569:Swaggerdagger505
32360087:naum08
57752350:YYercy
87041139:loft_rbx
17882176:bluetrucker
36866535:PilotOfSteam
56182674:kyuss_2922
28033017:Coolfan2024
20829638:agentdan01
47175285:killerzombiebee
75377290:pokefan131
73955712:LuisAngel01
29302480:BenjaBenja3
29103937:marcussawyer2
83341925:Ultimate_Soldier16
50431534:spare_change
35275067:DVGaming15YT
40576565:40576565
18775973:wafflesaregood0417
5884203:sabinajoh
35001254:NarrowSpade
20109880:AlphaRyan
13177238:Eeveepup
44320009:xSyntram
24380945:VenomR10
74678669:Livingitupaj
88032691:holidaydestroyer
64410834:Mattdunsun
71911377:KoboIei
1171464:xXDrChaosXx
74095581:FredEnough
29229932:TheNoobShifter
9248833:McCrispyDeluxeeee
50125693:caffaue
85115644:cielcielc
19445152:funkrave
2698881:Vman27
65378421:asboringsuperspider
77821937:Ness_0
86676534:haveyouseenevelynnn
820665:scurrygool
36393280:maxpee
27472842:24kJonathxn
32072592:spimich
54753535:99darkknight
35903332:cordello
8083090:PraustinBieber
19238968:briyes1
1777384:ashleebubs
41924466:lebmar2
58783:PlatinumRG
78265193:elianaxoxo12
32305204:XFlambreX
56445146:Pepparkakans
68374577:Scarlet4069
36386694:virtuion
4948866:VREJ
6001255:luxulaz
77542036:XxStrongToxicGamerxX
42072488:ZN8
12769684:HauntedZ06
70433851:ArcherVale0725
36035117:JGIV
80602615:ruffers04
46376854:gooberfish2008
23196656:snozberriez
52796068:BlizzardPumpkins
13960371:13960371
2795443:SSGMASK
53196377:MousieMuffinz
21228211:handsomjackson559
24997949:RocketValkyrie
85238015:ittoryuiaishishison
75113154:AlexisPW
70376757:S0_delirious
88156840:spratface12
21657086:CountParamount
53913097:Brandon4721
75319694:jayden123plotz
7781404:xiPopCat
13269558:JCThunder_2022
21029648:Supersaints9
16823230:FluffiestBreadLoaf
14552852:iiTJ
14404644:LimitedK
25656279:JacobGaler
82599883:Dragonslayer5455
55531483:antekman
67008947:DoeKnoe
96767:Kimokid
75713555:dcknipe
287393:Z1N6Alt
63625206:TheFlash2311
52973954:LouisMiLof
45585702:1962_Mustang
71414685:F_3deral
8558010:ReflectiveWill
78902873:78902873
37899269:cameron284751
80553668:JORN1210
86618666:86618666
32003302:FrigidTundra
72510854:iiNobz
84934856:dbaker78
75997658:woll969
87565122:tectalwintero
24231410:wxnter
44122913:butter518
19363888:trucklad
83212325:Default_Cepa
87472853:Larsx96
18437155:booglyboo
56483526:Diblings
11467643:robsik
13238212:MaterialsEngineering
70532975:Xeno_Rex74
29552845:2640
57986011:Falfaboy05
95939:95939
47462686:rada1234567
40077579:killer5096
69282948:SupremeDuckyyy
5473557:dragonkillert123eee
61617544:daniel97688
56953136:Impartialfrenchfry
4227266:divinemidnight
74647214:baeguul
33096886:drofdarb
8072844:Crypdography
33790472:plsntt
21483993:9DQD
50424972:HecticStrike
64438258:Eman0217
88405849:Zyleck
25435643:darwinwaterson123
4961297:gloryhp
25142305:mattdolo
74696088:BuildExplore778
29348820:29348820
84253131:j0e3
78933521:TetraPrayer
69011886:VauIter
36070193:ClutchSammy
79779979:privateozzyosbourne
68197925:Tricknologist
45955649:iiX_Azn
43066532:puncaki
6101:Dominus_MOOverseer
803710:chefspaceman
1646753:4Lyfn
773879:superblock210
57582951:Fireenginemike
31277137:AcousticMiguel
29858495:Kopw14
7044575:cruz152
42392076:tenseventxxn
57159767:Dayo_littleman
37696872:37696872
40000386:redcar3
70558699:WinterDomino
42922512:inkunn
58952738:Strazamus
73507961:perpytraitor
72397900:AubsTheCamel
1376251:DirtySprite2008
77391955:3Jackz
56664946:Biggbucko
