20181808:volt392
68878240:Jessie_OrExistence
56977367:grant1257
64816097:TsubakiShoujo
44773887:AllMightsLeftLeg
77620290:benninja2006
77618305:ExoticExan
75137600:derpypoop01
64240237:derpy5310
48508538:ElectroWolf214
79502532:rremorses
40250608:Ti_warrior
75593981:fynnell08
62787982:NerfButWithoutHasbro
76532059:claramanisbb
55219621:7u5a
65236567:truckfly11
28156682:bird1117
57368595:KytroXVI
65368777:PapiPlxbo
85007751:Cloudrocket23
20048421:moneymaster900
71843444:amanlikemark
15414295:27Steven
34909839:coltonthorn
7721606:Aruseno
70654797:AlyssaCandies
49551571:quinns1
73906980:charity0126
56406622:TheDanDirty
81594348:d3railed
78167457:aaliyahmonye
30422283:justakid11
45986113:BasilDogwood
79960229:persvasion
83615772:80kTAYYY
160146:haha2
27959894:MissaVon
28352754:dre5mx
74320896:xanderprym
24506760:ItsKirro
76722859:renhellokitty
36632782:zandenninja
74888073:zc_vz
87852881:heykobe
28467503:1greenninja
24114423:EpicJess2
14601537:diangelo05
56918411:westonowen
87002551:lizard13579
86257312:ezy12345ohyea
86165896:starguest654
56366581:sewerdrip
46168994:millercutie11
855025:Mystic_KilledMe
39090720:siera4516
44637764:AbandonedCroissant
80030363:Ve_rn
58931747:JediahOne
75906441:NukeRibbentrop
87921949:unluckyvastdragonkin
72747401:KitClown
65812344:Touchdown141
82883469:DesiredAngelz
65653193:heavenhellokitty
75971979:XxM00nlight_Vib3sxX
86654305:Subject28x
81491063:andrewmarrero
25265050:beanscott
78909841:stxphrv
33001480:TheByteEater
65126095:moonyzzzzzz
36558281:xanathevirus
76956043:kadeb2008
82369527:suprecoolman
44691547:Riahhhhlynn
86728785:Bomb_bam898
68114659:The1stOfThaMonth
66098423:jimmynewtron16
48127810:chare1
1212408:Auraiux
17748214:17748214
68062789:Bubbajj47
62611133:DrxcoJJ
17586505:Jmluvcars
54956111:candy06girl
87739192:Jax081007
64889711:eran22
52696119:SupaEpicSonicFan
85334216:JatosElimin
76640625:offbrandsoda2
51154638:Mang0h
42798392:cooljs20002
81571726:KRH3
80404574:kingtravelle23
82642761:iiMelxuiqxx
16072373:edge1216
52419504:puppylover9587
78999456:mouse5113
27406583:Alice_GG456
71715128:vincentthecooldog
53563367:awc5
63835928:belikekevin
33183124:33183124
85075976:Johnspad
45095381:lizzypee
55221541:brianiscool911
74898220:Icy2004
50929766:Ryanwizardstaff
20844810:masterjake138
70064884:XPaulSC
4943794:tiger123933
48056206:KarlSpecter
77305764:nuciy73
76108089:iiFuZedX
83655157:iiKxeKae
40075296:DinoJake_YT
80994007:Rameman124
68693494:wolfvain2009
47520637:GFL_Negev
21465899:kaniydus5
56992595:D3cryptionz
46243719:zsingleton2
77521259:ryansammons555
40398402:ChrisPuller
58684119:jaybuggy26
78759297:idfwy01
25998147:SumnTingWong
75826989:markelbo
88142818:BeccaCutie10
57375435:paulpaully
44423041:Breanna3402
58196855:cokie454
66262716:Pumpkinsxxd
20639537:BuIIion
75383159:xxBroken_Dailyxx
82951917:aber75
42284222:Seronox
83388448:LilofiAddict
87132786:smileandgo
43306113:emiIyroseee
62712470:MSMATTIEROKZ757
80960571:jerry241425
66576833:dreamsbits
77632438:jaycetheace111
37231846:frosty3300
7645189:jpscout
72911121:mantoplay
61475909:elizabeth112363
41452093:range117
68562016:Nlxxe
45450195:tas123456789000
72153602:pancho2008
73237145:merary53
77081216:SpiikeyDew
15682658:kogroundan
37786453:retrorod4567
44155502:Yukai_Kitsunee
26637333:OrbitalVengeance
16950774:mamanevaeh
86164575:iamrobloxbest
11966836:Iris_Yin
36223314:ninjarocketgirl2
17003890:Gabriel425
85973664:UltimateHope101
45492453:zero0199
24732090:ISt0le_Christmas
58834925:MoreMilky
79919514:izzykatdakatlover
88310471:latinhen56
50103880:TaxPayerFunds
42035760:awsomefemale8905
22427390:CandyMandy6
49260910:devilman268888
56942510:Jonnie8D
76702874:lduncil
68255486:tta4736
74064293:chrystian76805
70891006:lpsmousie
76803302:leedleman227
76300661:KingsVentura
37261643:Adamcoolplayer
28396648:jacer05
50222893:NTekNikIaus
37591733:37591733
37372496:dacurtis9
62982815:ricardoadame11
9890376:Dshepp23
86166821:swedishfxsh
53660904:GhostlyWeeI3
40513037:KaiShirudo
63492880:camsthakillaa
83738688:azterzl
69742666:FatBoiEj5
48167295:Benseii
48850968:RuoLaux
39560108:ThunderKnightly
76745403:venturian50005
38654055:NightVirus
88023769:kvyxlee
88169723:jugglo121
85393159:Dust_42
43516228:BlizzardCrasher
86454726:SinisterXlll
34472526:MrBeakBeak
87977193:Crillers
36915646:Don0Kli
24610813:voxelsoul
75812145:ThoseDogeThings
88110650:kaseman02
23150499:floofybeetle
81477671:ajdram02
46746915:Giorgio_ROBLOX
3637220:46777e4ty
73046983:73046983
69317389:mystokk
70417687:FriedrichVI
45568131:sparkles5570
83944398:OverxGME
54925856:sunsets42
60076301:OfficialN30
37688784:SimpHunt
74833314:rapidfierguns
81736870:youngworld1234
61658490:tommie103
2491660:halo1648
83469566:hitta23bentley
87149804:Taterky
43809967:supersonic92392
46905219:TheEpicCow833
