27895402:4tlas6
27508794:nyolt
51634691:Zautiz_K
17555654:Seawolf246479
81795774:justingalxy
35943541:vewveeta
54460257:TrollBroOG
6946537:youngownermans
79803558:leoleo5555
70603309:whezleech
6618029:XDI3elg
34260646:zyppijj
26182930:Jacknowledged
14085412:doggy00
9206992:sleep_lu
22457795:officereso
70281793:tonywooleyt
36942816:1Pyramancer
86952758:PHOT1C
49601674:Mewious
26224965:applebuddyofficial
47903208:Vitalicus
75288326:fooberry
45358681:EmilySillyDev
22864553:Ura_Dopted
63173872:shepfuu
23415676:TruNeptune_CPU
32114801:Jimbobdapolarbear
1063019:schizo8qwe01dkacxzp1
86608673:coodiscool
47783372:Curse28
52587210:pootiswaffle
87339805:Ashy_030
616768:jblo_ll
71839718:ihxach
18763178:Foxkittyv
75801932:FahrenheitGames
78350056:ppawcoded
10310660:GloomyWood
939501:hotpocket285
40596310:purpIekushh
75520428:SaffyFromDaArea
46692342:CreeperButcher
18992653:strawberrymocha239
15464794:Creasing
25023868:luvlucky777
45507514:maxminecraft5432
36175599:turkeyb
63924093:bunnyswag6159
87961858:saddhuzzey
81596605:JayBoiRitchie
40761324:evisuii
55873123:zen10123
65559952:catthecat4
45654959:FlutterBurst
85590750:iiHateDota2ii
87385787:IPost_voidI
72487146:zizi9821
29123523:greatboss223
57418028:Raukkas
80164435:LoneWolf877
41086622:byedebug
45893130:PRETTYNANA6
44259464:Unknown_helperjohn
33823389:vitriolica
52267104:njhnjh987
84260439:Came0w
80862273:teenagetunes
52964609:iloveponyes12
81058258:XxAurora_skiesxX
38811356:deel004
77158356:dilleth06
37627248:speedracerisawesome
58089294:SeraCanid
23863641:YuuNovas
71452701:71452701
2818808:Kazdra_Zver
75619552:ClownQueenDaria
36930576:Bradster0812
44035351:Darksonic3209
29969123:F0ERM
41053569:slendermanmama
48832282:waubreigh
16664287:marine952
43038120:Fire32Ball
84194128:macaronoooo
15872578:CensoredLettuce
34750498:reallycoolrobotguy
44205879:puppiesluvme12
58773791:crusherrz
73793415:TailsDoll18646
78449279:piIotgumby
42230850:daisukim
34003703:ryln123456
51456484:devillegamer13
47155605:babyelf123
69683734:jorbapak
50311403:mielcarz
15065703:DqrkQuartz
53201481:coolkidnick2005
59933115:Movqie
63452693:tnvyaa
22440468:em33928
84516489:Rix_CZ
43148:dono
810034:CrumbIeCooki
73580722:cleanercleaning
18075883:Billis_Andrew
82395567:treysteven99
9833009:9833009
44604124:max123456725
44413411:dharif
32933022:Euridrius
49741579:49741579
47863776:Sevurz
879853:SeafoamWolfy
84470327:Airbus_Fleet
59577879:Tattle_Kat
72086055:aiscbili
84260284:demicchicken
64104382:Upscalegaming
23503550:feIsiea
50644092:darijus55
53064581:Drakath_x
19701583:deathsoul647
68228844:Nexxiir
64790014:SnowLeopardMilk
33420850:icee82007
7882067:viddeee12
39583124:ohnoitskaii
42710811:o_Purple
41962255:alphamasterr12
10466488:Ba11Ch00ky
45368100:rbsdad
10778844:SojaBuoy
62101634:Acvqa
47757673:u1f98a
1338:claymo
30728724:burntoutmage
58945240:Herobrine3658
87130591:buicindy
56560385:papish123
29607368:Alainabird1
4343951:flugymalugy
81879427:WarDino25
9754171:pacoera
78657357:Green_Apex
28054348:peeb0ne
50199599:KayleeAurelia
38886566:Silbystar
74143051:promlgplayer2
35343150:pierogi0_0
29400514:sqwyd
79882876:ikkinperea
35289273:bevta
62741810:adam20086
74715914:AFROKADA
85977402:FunicFoxx
10735109:Burning_Fr0st
47902717:Zaracotic
76373070:cwravedz
36888135:hamseeag231
73521100:cursIet
15980571:Zoe_Rena0
46503614:mrwissard
81878921:archiwatts
77029373:Str8UpInsanee
33524123:NyxQuentiam
13416453:packerjim
72097851:Donbewicked
76515301:vulpiniyote
42670615:BlueberryCakeFennec
76861739:xxgummybearlexi
3956718:mantasjkl
83058613:xandiaraujo
28248496:Twist3d_Fate
50350909:quesalrito
40730179:Sebyextreme
78145077:klaila222
66690920:5n9
20703871:GoldenDragonManX
29447715:submissixx
221021:little5
53663226:felophia12
929604:316
65900258:emmamyaroo
44138867:dukecity33
25702426:25702426
15011788:SpAzNoT
57096422:julia4you
19427370:Pseudesthesie
40572999:ItIsJigy
35758262:Deadblock120
81289915:KhaoticWRLD
69034014:ryan7505
87666290:littlebird2409
83129457:ElfBites
80677808:AzureKarma
29959309:Icasxn
82920166:vicxyr
51108528:Endercakes12
7348536:Un_plugged
37419385:nthmonday
46875745:Asomnly
15738364:Chi154
33783132:StitcyIsTheBomb
73905025:curseain
72704479:notpikaa
6621797:LadyxLight
87039599:lazaro31
