21067352:bboy2201
35780019:ChefGamer
50091798:theultraman20
47210:darkbomb
53789262:Va1entina
6192206:balloonzking
24291114:bobmaisy12
8484933:JoeAtomic
27834055:drydannyboy12345
24911998:mariooscar2002
8753349:ruehin201
15298428:motoman8
20371580:Das_Braixen
15951626:betternativekiller
46070527:baconator7567
25898292:Bankrolled
25753432:xUnkowxnKiller
34262339:kingcowoe
24993739:bigshot253
15707776:robloxdush
25568280:osha5
32808416:Dark1020
6462956:devilcrazyman
31024512:awsomeman336
23903951:23903951
20504712:SUFR999
20972825:mattyb213
19417939:joshcopterccshX
40397369:deathwhisper29
8875081:Konroborad
9627863:IndianHolder
2736685:dapunisherboss
7235047:HALOMASTER4425
23345607:mahir3000
15582369:AugustIgnis
33278151:imnotasafechatter122
20537255:joel99jolejoel
20313894:benten11110
57488657:evertvanacker2
7906729:HILLBILLYY
600021:Nyarakel
3056295:cammac803
20166523:TheAtomBomb10
22846298:Stridezz
28730465:NyxtheUmbreonQueen
23963236:MindlessVIPmikkel
13897892:WreckHerBox
3475621:chowderfizzy
5890021:ryanzero45
34639644:aidanrouse
24699334:coolpeak1234
10232947:TruBlox2000
20317210:hiphopdino
9240370:GoldPlatedMilk
21177451:70chunk
9384104:kr80istopher
8927215:manterMAN
2732712:nowihaveyou
2634354:db1111111111
22542023:nico89noob98
8270409:KikosVids
4214858:robloxian466
5401730:legand2007
56176753:martheawesome
10994283:1wolf1person
24672439:midnight4443
9597902:connnor2003
17605740:fearlessbeastmano8
945097:RudyTheLoneRanger
28706695:Darkyoshi518
22519781:COOKEDHAM123
2668666:TANKER25
46329125:MugungaInfurno
74293367:remus630
14964276:MaxShepherdHD
16406016:ColoTaco
14325149:guylolguy
15185089:jakeolover
8738148:BZIMME6630
25533136:bigdyl123
18756793:Barfbox1
24443377:RuhJeeNah
15844858:gruntkillingforce
13034506:Fightboy29
1898874:RoXzon7
19126047:graden112
18957929:18957929
1223249:funboy88
3365624:EJK9000
18476726:0SHAW0TT
18409885:briatat04
20353627:supershinyman1
9085977:HundinV
22358199:yodajammer
2538445:rex113581
10021320:IcyCherryGarcia
16724866:BigKillerBob9
659542:peanutbutterhead
61880589:Floridos_pog
9369538:halfweirdjimmy
6145731:lemondrop23
47980065:IronMasterSim
23832773:dracomalfoy101
5388530:bulkhead1
16331475:zack497
24511622:Magnificentdaniel123
18486624:Darkx013
6264456:2sniperguy2
86888171:spartan67069
16521756:amugisbatman48
25695020:imonk3y
62871271:TheBabyofMariel
24186649:Dominoboy27
22472991:legomachen
18632281:tonyn365
212561:DropkickMeElmo
6409615:bbissell
3784101:ashton85629
86276878:DragonsReCoded
4987558:boomboom3000
22423110:SaiyanMercTf2
21906395:Futurestar06
12981571:daviator1234
2506830:kadertater123
10826698:Mazlon
42287315:gamerguy5250
4661349:michaelkors2
52180563:shoty11
14966918:1up32
6254197:Ronaaz
60819932:Tgtgamer101
10185303:Ridiculessam28
17797926:matak3000
28244314:hugebmxer1
15855221:camrins
33450912:tomb5
47914210:j123j123k123
17394330:17394330
34313089:HarvestKit
20909361:rdenser1234
1720707:Vuckq
27254996:KOFromJames
20909713:Zoruauwu
30045358:blazeon33
23873027:gavin258
36225957:japesterz101
5787442:kirby3323
7104045:pappy4me
48859865:Shmoozz
18363608:DARKSNIPERKILLER
85878788:iiStxrlings
21641460:Minner07
17537813:rileyriver
14908184:sidneycr
3148842:flames211
21170262:cooleststardude
28355250:ETERNALSOUL46
32947037:swords15
18870911:zebminer
31491536:RedBazooka
20785742:onemanone
18010565:XAce7410X
25376907:THEDARKHOWLER
13653298:cmaddy
4414714:MarioMan39
16510709:killercoolmanx
2197514:GrandpaVulture
3192073:Fire9999
2189732:Mandaka
7730808:eviltinger98
16094062:Ouchy1
4417132:Miller4
26154667:13SOGGYBEAST
15068672:ghnija
25836675:hart1614011
18020857:waterybob111
8147867:DOMlNATlON
17926255:overkillapache
16067876:EXTRASUPERGUY2
24765979:coolcarter2001
78881135:kasyismyfriend
832691:superashton
22203043:84j237
41928284:41928284
63567865:tomthebomb5
5081434:anthony0808
28318362:Hotpinkgirl0234
4227066:JackStem
6497277:PotentialDad
19018318:gastronghoul
25231507:title123456789
312200:Willows_Wulf
560099:Swappeds
15915135:jediarecool
7592099:darkSamuraiJack
29479092:MattMini112
909540:Conflux
24441068:bloodpen432
70475678:benz9410
10544954:builderdardan
29699593:V3R0N
9788432:Septivus
40381559:mrhittahits
22369078:RilicTheWolf
9674248:edac46
21988452:Leafeeny
21402975:superpooper56
31423642:PerilousDanger
16518937:ChaCha94
8350211:BFB2
17227644:originalgravedigger
25577298:TennisMenNadal36
7252502:AVUREDUES54
21222870:PatrickB101
24113975:UlyssesK
14193378:camifred
13371065:YanRexx
25022778:hihi821a
9957321:ReaticalDrago
30957558:30957558
20070463:ChaseThatChamp
4137021:886lab
17707850:lawsonbria
73188183:kingroit
9243573:USASOCCER
19661258:silverjaw64
19300744:rj00a
3343622:ahhdo
68534:pac0
917472:Wobbletiger
24778358:Masterblaster101753
13472558:TemplarZack
10973851:thegreatpuffer
24709331:ko1234567
27248240:poprob17
15486775:cmdrmatt
20370989:awesomecrazyben
79290628:bambamboy862
6065305:ryain10z
13743011:ShinyDragon2
20752610:dustin9933
13342295:CJD612
6856777:hahanet
24066356:elih15243
1011132:Rockjay
41236940:SouledIn
20176402:adamjamesleejackson
2742975:niteninja1
11466237:2003FastEddie
21591212:bobhog37
33062:kittey
7852909:p11833211
14041161:14041161
3270909:onur10
15828935:marioboss12
23501500:xboxawsumnis
78325857:32390
28382636:blodsuker21
4956609:zachninja
21924300:XSirSageX
31018868:deadhead8
20021757:deanico
19457072:Tyrannus59
15044450:PipiGrand
39830242:mikeymikel
26027933:LuceSole8
18584768:bubblesthedog
1885913:soit4
30628739:DJNATTY
22409085:brady574
3064054:deathkillerbootcamp2
999240:Ben1219
23039932:DavyS
59790909:NotSalvao
19192821:madbnm42
22365653:zachman366
40277661:ikillzzzzu21
24669480:epickbob
13366332:corn9000
6713383:TRUCKER25
1187135:w63995
292542:MercLeader
19324453:blacknbluethunder
22017960:Rancor59
20640497:agent48489
4097391:Flipper111
9864053:Robloxchase1234
19359512:tenzing12
17447396:pikachumax
27491044:Grander22345
22916920:oldzombiedude
5211023:P0FFLEY
16546696:ReptilNecrosisMain
9276843:1897rfr
10216546:crazyme885
1305012:emperive
19345279:Swatman5576
4777171:USARedClaw
24343934:xellosbot52
19227062:omlm
24026181:thewallin
23600294:sindas
916942:alexa889
43592862:AER54
23580238:jamiolopo118704
4650200:darkninja0000
7643774:holyfatperson
34169966:Coolelfer19
13492870:USAFGeneral
7082972:Boompashoo
2498735:starwars1231998
3831215:Danio4
14605886:rekcut123
49690689:Jamo05
11068017:Z_Nac
9143777:Subterrane
41614163:Gadget57
43528187:xDEADSHOCKx
9140331:IegitSarah
5699044:matthew302
15201860:willyworm
15563996:dgetto
33161109:Whammoy
19536470:Darkfuryblade45
24000427:giants168441
20388625:dane1oo
646327:Destroyer97
17794702:Dashasaurus
20443550:SaitraDey
21887917:tebow1515
4317513:Rachy525525
86793666:rIlynow
41578940:SecretServiceJones
33952755:IPWNUHRD
16308172:JinxerDude
20017629:PhantomBrave
2352776:blabus
9711798:Reawakening
23378899:WHATsuperCOOLMAN
15343257:theshooter100
34594099:bumblee6000
13173946:Dinos2000
8847970:lubrock3
17946602:VinceValentino
14878253:coolkingmax
1211728:1211728
8210111:pizzaphilip
13203163:alaudis
7413242:dudewill
8674526:spaderboy13
1243153:06josfish
8373230:monkeyman1219
19026558:mattjr03
29540745:lifefightor500
13382656:lightdrago
23696399:xEuthopia
1442240:Lioncub156
13314640:you123we
21731495:moritiki
9027997:cioul
20566367:dsi2929
35851666:BlackjackPone
6620633:daney211
14308504:IpodtouchGamer
14796083:benjamin4702
36515422:xXZWAGGERXx
25991638:realgorandlouis
20153426:jace1272004
17577669:AssassinMathiasBlanc
27289020:captiancamden
201958:deathgiver23
10475956:rubenn1234
13597872:pacman623
17356047:sm0k3y_qu0ll
24578230:ninjacash500
13460686:Col0rful
25306431:fartkillerian
55733186:delefinendele
20412303:kingkong3603d1
9668114:Dynamic_Shortage
21580613:thedarkshirker
4288765:Pouncer18
10505863:manleyjembrey
19111596:Kidscientist
21440941:kingofzdom
26695404:One_AustralianDream
75744149:greenberetb3
14390493:warior852
54711137:koiizyyyy
2938730:oscar5467441
33911645:nrdp2001
16571635:coolbro910
19055138:Jake9704
37061945:STEQUIDO
21388333:SpikerSnake
4663797:supersourton09
16622404:ROARY0714
34133852:ElegantOrange
2890689:Waterlimon
804939:redlion365
21615938:xxracerdudexx
14837618:killerparm123
17465545:perfectcrazybanana
17395018:coolguy7066
36135254:quad900
51705280:wolfpooplolz123
22998121:Tamiyami
21152856:bleTheCamster
17110384:DragonMan143
33185581:CoolSharkVIP
44199133:nightshade1313
21035524:holly8900
41956923:davidpicklelover
32951040:351875
82639707:82639707
21379645:SneakyTailsdoll123
21550089:shortshad0wblade
10753219:UGAGODOGS1
166218:Ace145
14176295:demonshoter
8398843:chuckwildwestpwn123
20434060:betterthenyou1
20101426:jordy990
25061553:cooldude2004fan
8924147:djhero6
14487270:killajake25
10031008:fusionboy555
26139509:BaikalSeal256
28102784:The_Mercykiller
32583984:leolph
33811616:abcpwned
20869156:ethan29764
17652601:jamiehenschel
18332993:FiveMinutesAlone
22651529:metrekkie
16478816:Brokendusty123
15191764:Xxjmoney99
49697534:phoenixchrissyy
5720670:BADBIONICLE123
55269099:casey474
20676094:funscaryjames34
19175827:giantdrogba
18418487:cobra54321
53419486:BIRDMAN13245
3070838:deadskullman
14876907:hj146
22470596:Cooolsean118
18792828:ezekieldude
44058724:adev03
208956:BLOCKYMCBLOCKBLOCK
21483417:GOLDENxEGALE
16663253:skydog85
15980786:robblix99
15392138:bidner
19731600:firebender819
25707068:bostcool
40551020:jp111111
15361455:SadDrogba
44189262:jokeguitar123
24902479:boobon5
15610296:fortnitebalIl
2317848:takersboy
66995538:hotdogs2015
26602131:freeeehtz
2815522:Nimax97
13282417:kmic101
5636742:kaleb222
40607434:JVstarry
81066607:D3527
5449703:ForeignDope
19501319:dachuck51
38004556:monsterboy2rocks
21649615:BriviFX
31290986:TheNewBlock
22359034:wasuppankake
15196002:Gray75
8952376:robloxmass
75827403:75827403
23570761:1Kity7
9290193:Fun4Forest
20686333:DocLynx
8806474:MysteriousXern0s
8926341:Trey2400
9602705:Varzio
882169:WolvesNationYT
84661:mastersimtropolis
2632396:RadicalGingy
61855817:BroOfMyBro
61971079:MrDarkLord555
86203913:XomqLouisbishXx
14792274:michaelaqua
9662674:armydudeEPICninja
5830915:DanielMalone88
2799698:ZEEHOND
17491806:coolman3608846
29714667:29714667
16312629:Neffe
18061854:gunnermissle
14124576:Jackenzie
5083963:Max5081
4432363:shadowking9000
13216100:TrolliPoilli
80155459:iillamaHD
32916725:Uklanos
18377414:FlameFlexer345
18519993:torterra870
88382325:elaine39
14916762:master4253
2161570:supershadow1000
23978098:bestmw3player00
21179797:skountanis
17226077:acidfiredragon
23856205:hawkeye1356
81162607:JAY25BOSS
21332824:CheekyWolf
18686760:SheCallsMeBot
13580813:dissywhooves1
25155375:Incarsio
29845051:THENORTHSON
21828371:hunter71078
4218574:cool3269
30343438:Infuegus
19257532:blastfire5
33946668:leTrololol
2300231:Snake101007
20517061:jessy2002
49454867:Ten_yx
26595555:fone_y
43693203:Jonbrof
18071533:superdarkstarBOWSER
3851412:MONEYMAN1232
44604981:glocktank
22786608:Liltherealdealdude
21443970:SimplyGolden
20014372:WARodst10175
4227213:iwasabadkidbackthen
2326978:gonyed
14859426:simpondee
72242777:M3WC0R3
34739952:mrpie301
18089468:CapitalMic
38822354:Wacadude
30800827:Attman
25053452:fuz2bug789
25822283:minecraftmaster44
33060040:WoTAmericanStandered
18702387:markonaoum
21936469:MrFunniest
18334168:dossjf
150565:moguay
1511978:chickenlord
21592153:Regirock54
8011919:AnakinLinux
18704449:acehalley990
35619287:stgrabbit
31123150:tor555
6557411:CoolgameReaper
6670984:glumglop
24038456:Cluq
10418451:tanntann2
17181556:Huntkong72
21877186:wyatt999999
20739495:gat0rkj15
1463403:pikerkiler
7238099:JeffersonDHogg
21285508:Wflzpwnr22
28248884:coolguys222
1998107:chase5049
8287962:KingCorba
23308125:ahoymatey4
25287708:shiftybattlebuket
10692956:TheoryX2
23765400:CLukasko
30212419:xCrossover12
1308499:cooly93
23647261:blade5765
22163360:deaddarkskullninja
16209999:We123Richard
971812:SpeedRacer817
3630015:gy65
24614352:RedMrMineCraft45
27867721:freedom119
29617270:ZachHacks420
48660041:swaggedupdoe
36357760:pjman62
30358190:Jeeprees
2321888:chocolatesavior5
13107928:offthehook04
38065335:220139815
15075044:garuda001
10686866:JackFred
8319802:Luke8698
23842232:TheEpicMouth
17934276:Catsim
6996858:perfectrainbowmario
8886147:marcus3744
946571:racingboom
31049827:MightyBlueskull
4183203:ALEX46297
37999401:GAMEGROUP
37188581:killerpenguin314
7710486:squidbones
6420662:pth159
27188902:Papa118
10610036:ThePainTrain765
33693674:Choclate6955
563961:samus177
35390929:dad5798
14534721:purpletrains
21198469:justinking7293
8642206:anthonypen
7241346:mson5
8362060:UnderDarkLord
13917892:SoarinVelo
35229038:julianbz1
51273019:PlatinumStuff
23052863:ryanhalter
8206058:wyattsmack
24443175:24443175
17347669:sweetseth223
13983646:tieblue282
18865577:SuperHotShot11
1978226:dfgi
14949729:AleksandrDrov
3750474:djp00
28508480:Timmytan
25509740:Miah88
27923350:ProngsXII
20207671:20207671
15867080:360ManOverboard
22097697:JOSHUA5986
31715982:fortwalawala
13733984:bilalo123
21125574:1225nathan
8577289:trunzo
13100202:IDIOT334
27933645:yousef102
6733485:opperblox24
9032768:hatezombies
6558268:AStrangeCat
20101086:legendbreezy
1969583:wiijimmy
17707949:iiInfamous
17159579:alexp90
16427864:superfig35W
19334409:jimmyman27
15399224:PvtJamesRayan
20116277:wastfuljkh
17757652:Doublenecker
23972140:marshalcain
7293556:stormchaserdow7
16487385:matthenderson
4229635:MOMOthescienceguy
29047980:betterjesse123
60387334:IostinreaIity
15634608:Matt1833
48603598:liljesse147
27832218:MEAT_GOD
20000553:epiclyepicnick
1741591:aaaaaaaaaaaaaaarchie
4877137:siddic12
6724461:Gh0stSvardo
4793666:yodaman109
37294909:Pirrate34
18316519:weinhardt19
1893082:easta007
22580703:dragon4848
17068032:crictel
15422543:Forgetfulcoolman44
64072644:jokerboy33
18841808:Artanisthe2nd
18404325:kenny09jet
18974537:INukedYou2
6275015:HS8800
62104134:jimmy7657
13605458:AA83
9888989:PwnerTheII
19790318:nb64
1573236:BlackEyeJack
21808133:fatbug
24088042:patr120303
20584523:EZswagger
932189:gavyn1
7454313:mario0225
22941282:laterAlergater
22316732:codewiley
39666627:topdeath123
41145766:SuperFlame8989
26672700:DarkCookie98
6196560:littlebill123
36868571:godlykillerboy321
36075644:1AwesomeAmazing
7024869:PlasticYorkie
24457296:doppelaxt2
8924064:LocoPocoBirdy
12181824:bloblis
13638278:slippy40260
31470241:CODY200212345
3652959:joshea123
35532941:aldoschmidt
34445377:Raptor_Autarch
9654408:belmontplayer
14517533:Tomjedi
24774042:monkeys91
22880576:mightyTrey
7220169:poophaven
19071823:wearychess12
21962129:kroko1234
5893136:TheVillageLion
3407054:BitKiwi
1652353:mark333
50688425:Aenglecniht
25382608:iampro2
12315891:xxGhostSniperHD
6624076:OutrageousDunn
34562829:dether3
17781434:LTuga
20308087:GEG2001
17751507:Lfranca202
61485647:lesserfruit
34813387:FearlessStag
19448525:hexbuggy122
4215445:robomaster595
13549128:S3iZeD
20924287:imawsme90
3235151:catmob10
10824262:igbe
17528593:17528593
1264662:deathy982
8814893:FireDragon75
20293116:DJTylero
25085091:daboomblox24
15243190:col7
23317063:snowghostjerry
19150786:scacefrank2
84164722:Diego1epicguy
25656008:CapticTheFirst
580327:Rex2808
18870919:Stuball
34400422:DerpinBloxxer
7560228:DUDE3291
9902329:Danrox123
26582459:ABC1XYZ
21259296:drakeman31201
18455037:TacoApple99
7476869:pvtstaticvoid
11404708:lordlord22
2973800:ImKanny
19466763:epicrage1556
32216219:rmount
14639156:69KarkatVantas
10738968:8900nrs
21298886:xzSTERBORzx
21878742:carm233
11191333:Stbomber
16359846:CainFrost
34778605:Darsurge101
28719508:Dartechz
67851830:uSErname4499933
25342604:SiIentsnak
17259864:tystreit1pan
16126411:FMJames
25442323:XxDogerkixX
27695608:unstoppalbleZues10
19513491:imemilefire
20579811:runezxz
15331103:coolas22002
7339820:Tutorialblox
11335682:caruso2010
23479805:Rex544509
26893122:modernwarfare1993
19390226:deathnecronx
8384679:snoopdog112233
4883742:milewski1
18864034:Corgibutt13
19632970:xflesh
21704589:mikedeath
4651157:charsard123
1554323:nightranger
27787473:NexVII
68525389:Zinovi_i
122543:Blue_Fluff
25349702:Epicskidoo540
2562532:h2artcrush
47226901:lefli
25261148:rj132r
88306276:Th3_Crusaders
15801024:bigjay10
76394990:derrickjames443334
14270014:catIoaf
108440:bhc
8057050:ianthezombiekiller
7132576:jont2
3750229:iccyyblue8
5686247:KindEt1
5799851:RicoX73
45777951:Tchiiito
34748069:coolmatt987
23426912:matthew8ab
9346891:MachoZekrom
33868004:SirDaEpic300
4408550:GilAndy
36412172:WorldOfMonkeys
2438405:loopylegos
2540214:NathanVenture
8454452:coolrazrdude
2903889:doubleA498327
4464745:Worino
24385622:Official_SkippyJr
23420878:rossblue1234
17367712:blox80000
2266802:Zictor
50079442:buildalot3607
2775773:Blackout602
9482476:StayingAnonymous
76768700:Austin77Boss
24931201:ppiggyzaphim
2756706:7035
20241049:natethegreat415
43673428:mo1008040
22352471:police123465
30446105:kellett10
50687066:Dmossman
47994329:DominoCoder
28129760:coolviperchase4106
34858861:lostsoul25
22214524:judymydog
6932053:hi135
24501201:awesomexxPasha
31925379:joshlb6
23929230:bigblackshadow
64749347:BigDaddySCP
5352965:dani5353
28438658:ichigo101010
3592282:KING6789
53052523:aiden6423
21784242:jigdude
4759398:killerkill29
1260789:ratman150
56720617:boooooooooooooooooot
24107545:Phoogles
50733236:neutronpantern
5132293:mjqueen13
879574:joe192
6569206:baddued
13288239:theking170
28515588:tinysneakyninja
32798417:Ceruibast
13021149:llletalblade
53140431:53140431
20698397:CommanderZoku
10507913:failbob1
25454821:legojordan12345
24869725:nicegrant9
38837664:JBoldy
314320:iking9898
1931330:roglikx100
9750504:snackdemarco
4263083:polik67
16792495:superhero2428
25688431:MaliciousSquid
21432341:SaadDaOne
34661013:icedsoild95
8605647:cactusben
396077:addsadd
6981386:Et2131
17264243:cailinpat13
4217648:Nfire123
33827620:mageshark99
443735:Seamusblox
28417927:0BeckieBoo0
44123569:CapthippoUSAF
14587943:fredspike543210
3712391:3712391
73544356:Thekure
8838234:knownsanjeev
10950362:GrusomeJohnGore
4405223:Jaskirat4444
9372963:CaptainGrog1
6784625:davideman100
15726770:raszzer
952098:HallowsNinja
1684834:Dialga303
19426660:yooyoojoe
2163345:91196564
29906761:Robloxian121314
33123096:cop8856
17743547:crabbything12
24164231:StarterFORWARD
62518422:Acquler
43078935:Firedear
36253223:roxxors1
33747297:NARLYJOE56
23734609:bionicblackopkiller
8426036:beanbloxer
40614230:bestcars1234
21052927:Anastakios
13350912:killershow
16305192:tyrp2003
4353377:mbigy
10518740:madaaron099
15794993:gojakethegman
46028043:anthonypruitt14
38449429:Mongoose285
332073:Adenlee
8352397:shortlegos10
24934797:olivere7
23630015:shamba
24862739:hamster1120
9339542:lego125780
1205743:1205743
35944380:noles501
26690555:bumblebee0206
8380567:ExterminatorCES
8758159:temporaryfish
3723160:halo57634
24875167:helokitten12
15163982:LovelyGirl9224
40835864:kevinscott11
21107960:Roxas12291997
11226554:dude10116
46056969:xXFaZeFaNXx
21730353:NHL03
21782494:rego87
23164694:FlamingArrow02
49217850:Lua64
29080745:djmax215
4992675:josh3322
11815117:Monkeyerror123
20440929:agentjackkey
20114345:lovingcooljose
22190314:multybrendan
13866533:jtr100
24605890:Zack100205
2955785:winnerman55
2101511:HauntedUSA
1831519:screamer50
10464261:ooo0o1
8582657:ItsMySalsa
7911136:bougee
13371541:sombrelucos
25748164:helloman1227
21523838:PhycoticBoy
36859021:Csixbey
16003256:Mahmut5
1944964:clonerex56789
45419390:Future_God
76898362:jcoolguy2205
25267506:turdseller75
19627511:smartcoolyojo20
20342855:ajja523
25909466:BCZeek
27849806:Lukeflash1
8374741:NANOTRASEN2125
8742178:dontask778
17966941:Chignugnug5
23957952:nightberzerk
8701132:zack474
3290220:wings99
4784195:jackkep
28217409:holmer55
19677889:Brunoonmars910
23984086:Graffittigirl
37903929:happyhenry312
9583518:SacredShadow
26602464:spoink03
85297195:Starwarsrebel7
35709301:insaneninja2211
20161808:mlopus002
76992301:F3ARJanitor
13529372:robloxxman1234
19241414:JohnPrentiss
3796341:jack002
25633106:rugbe2003
28765890:OzOkiller
23414637:cjblackbird
27588743:unknownkiller93
2369997:Kimisato
23278195:TypicTx
15550080:wakcandies2
14160483:ShadoDart
80953315:CHOMPER5000000000000
25647621:25647621
958233:Operosus
453054:DragonXyz
26595948:SgtPepper253
39255361:JasonGoesToOrange
842128:Rajack
17627530:Rojguyman
9634351:slothsk8r26
3115041:derek1452
24785162:proudawsomeguy123
23199085:stinkymagicman
24241276:AverageJayden45
9906889:9906889
48504232:XxCamTheJamxX
2414524:kevyn8
3759406:boomboom27
16599315:GrimRose0
60487893:kkruct
20531127:WiseHayden1
6271262:ninja_turtle202
26658055:oddsharkboy
49270084:rianbrito5799
6993183:pbjms
27616549:epichenery123
653364:ObIivonize
23457569:maxramm777
29127914:danny7322
833279:zach480
27801887:x7moodx
23256494:Connor_Novak
61516501:ElKhalid
13400405:Candyboy911
6866102:roxas81
4924751:dog706
22586302:coooool101
25301331:DJmanes
47952926:KIngfishProductions
28097624:UntouchedStar
6651527:zoomer67
41772:KNum_5
20105300:NOname107
25689806:StinkyMan220
27733516:Sirdouble
12361629:lufthansa1
15370494:morganlala
43125359:Um_eni
35137067:r1_za
22028151:bannaman21
43747874:bullfire12
20912493:ComandoXX52
13518934:jakejack911
14216453:mrhappynicolas
27731000:viperdawg
21742574:LionelBarcelonaMessi
19317548:Bruciepie
908535:fuzzy1450
8084456:veryeviljason
27487119:LTMAX
13255380:MarcAndrew99
29969912:RadioactiveMonkey14
87911565:PoopInEye
29928152:TopShelfer13
22345494:termin8er007
7365325:badconor123
14615465:Lazzzy2332
15530657:oneill_55
77956102:TemporeryJoure
3426062:roblox_user_3426062
30782236:Monkey396828
6282425:Steelar
15007617:CursedCyclone
6109939:Mini_Wist
30942989:lliw98
7270231:pairofscissors
27375496:dayzofreckoning
37581091:spickyjace3
21404054:Nyhemis
22898964:Timmy7jc_REAL
68096942:awesomesauce5343
24021778:luckywinner01
19362833:Guyalf1
32554948:bol876
979457:zacy21
16964582:connermcox
20943585:33x56
23421622:chillycoyboy
17192502:coolmane24
35892260:mrdinobr
22964891:fluffybunny5
18496379:Eliott0209
5095420:sherman225
19257982:WxCalipha
18292375:Crag15
17667900:blazehunter123
4762878:Floppa98
1951940:robotchicken337
13515537:MP5SN1P3R
10362620:Zenthium
28203922:bosna3000
11025397:adamhawk15
18163217:popsiclepoopsie
26081050:teegeetiger
3461046:cindysboy
24004290:voodoo001
19211169:SoliderXD
19785687:smallrayrayrachel
5210733:wildindian2919
75068021:sontarjack
713119:Dynamiteboy2
9660368:pete1013
20942688:bigjrb7699
6634700:Watupdj
14505914:groovy526
22205990:chughes8
16077115:LukasVanBuren
2617554:MAGICCHEESEE
19458788:supersmartalex
27963578:TornadoKiller77
36551793:DethronedPrince
242831:gnikonid
2380083:villore
13583617:sick6565
35098650:RunSun12
23677715:yodabugsy12
4062879:kittyjoy67
18744371:mariobandit15
10792061:IN33dF00dToEat
11259505:Goostrider
7602018:niceshooter100
19285261:EagerPacMan
4948530:CrimsonNobleYT
5240248:clone10652343
30449733:Mongo11204
7061126:masterfireball9
22564743:DevaMan123
30927231:alexjamesowen
6946714:Coolikethat
9467156:DarkenedShadowStep
8218683:urbanninja123
23730055:iMrDxn
55136587:TheQuayQuay
6344711:Drakeworkes1
25688305:MalevolentKiller
24795213:ptteagent
15665021:jnknowles99
22519662:greatbluemustang
2823459:nolabomb
133149:friendofluigimario
17516286:isiahvideau
3948235:lucasweb1999
29222587:BuringDragon101
3619700:lextra
71753313:AESTHECIAL
36267492:secretkid300
9350460:lolz1000
4500382:DonutEars
1261565:Eagle8
4822522:flightsimman23
15568042:rkalil10
17301945:PkkHaseo
9159625:root180
18907525:fartj
4064089:frede1047
29777681:nicholboy
52378875:IHWE123
24195328:epiclikeabosskid1123
28250776:john151515
7587766:121GWJolt
64660232:WoodsyTheCat113
18016252:dwn058
1545581:WitheredFlame
10131317:NanoRed30
16761422:jjsnakeeyes
10427655:Jason27993
66705254:cars1234yfhj
34155208:jag888
1004681:jacob101010
36616217:stinkyfeet6
16930378:bean1234875
1656583:fruitrollup7442
24443993:24443993
35030985:Durrayni
22606326:robin2105
7118870:BillyIsMean
31976571:mybrainisdull
25179875:Damp_Jr
22231013:eaflot
63494273:iiOmqCurryii
15632972:Yogibear3205
9539511:Kally0w
31619425:Chompinators
17206523:zan125
786436:Loakus
35158317:usdwb
19448111:josh72012
28576294:bmonkey50
2698385:Joeyagent
23651878:Haydengun
17096600:andrew596
20351845:bandufy
15840431:wingfield666
10018044:pie4man
17830933:DEGURU1
9950051:maildude11
682362:dswx
3911805:ssvetle1
13980695:militaryman65
50454719:sillylife12
24462190:ripstik024
38223568:corbot60
19106921:aggie960
22161712:wiiturner
24091306:james6015
17134583:amazingjwerty
3518544:dwaaaaaaaaa
6220220:choowbacca
24689614:ZorroTM
17486375:xtabukie
5293101:Glen2927
33335732:areeboo
17371545:iGodzAlpha
17863351:gbost
16287153:JRRIDDLE
29768436:bluesports72
34942868:Thelegoninjafreak
20740802:Dlodly
83210300:MisterFinster
20857438:DrFaceless
18134533:ggfy1
18060812:titan778
762909:catarina100
14585087:greedynutterbutter
6297757:fooyrules
24584914:Juspertinry
15755563:RobRedEyes2
14679874:adventpolo
61799360:lipari07
46042100:RainIeaf
24218542:Brandonwilliamschack
11267653:wiitoot
8513786:CAPTAINPRICE777
40853132:XxMrGam3rxX
18546677:Thysor
13664296:weecharlene
20750326:sjbdude101
14264029:Hawaiiship
9037458:sonicace2001
4304658:GreenDay12345
9073448:Toughlizard1345
3002722:YeIIIow
7909197:toughscorpion619
33454478:182004
48262512:IIOBEYLoverII
5331954:ccc1426
29508777:KillerPaladin
24234417:thomasderijk
21513461:AtomTheJunkyardBot
57763490:ajkha
23193627:lameidl
20723109:obcbuilder123456
25632501:GillyBubble
24360194:NTech10
8291405:ultraMack
2503137:TheWeightedEnemyCube
39150532:use88bombs
1844163:mrak47
19297762:caianth
21989113:RustyBakaz
21632688:LexiXRox
21751677:redspark5
72465:MikeFoxy
71353402:paulwashere678
16465010:PAOLO1974
4113297:LordGandhii
36721230:xIndominusx
47193249:cireannod
344777:Koolkat89
21194084:sweethuntersawesome
16681290:02link
18858709:mastermischief2
17140499:RalpH255
22077265:greatlilc
20790775:M4A1God
22022125:mathman2002
24626629:ET3RN4L_V1P3R
17802007:GhostLuna
4666880:dragon13131
27390115:watermonitorlizard01
2452092:Tomo0o0
4028816:GummyHappy
273408:carstorm
1090820:RedDwarfIV
19676545:DesertMagician
10556029:weirdodestroyer
17617843:dingodang
23041010:redhawksky
30259534:secretdj2
17286388:17286388
4704310:pie2257
18066425:cj5055
20918983:legodudeDK
4263518:77342921
21424859:Dinosaurboy415
6519482:19Johannes97
28384550:WNdA
22653009:88terminator88
13488014:SharkSlayer28
8016782:erickson999
25121297:25121297
11263584:lolxdkiller
20681526:fordfalcon65
57356526:Steven_G60
6498558:caterpillermiller
4176800:roceo
21819071:darkghostroaster
35623993:darkgreenMonster
16847734:OMGgivemeaname
15159355:fastninjamichael
14294546:NguyenHenny
9612757:louis7402
7611779:Kiler024
16765469:Cardcar2000
50083449:DovahNerevar
8337645:favoldest
22870050:lilshane26
19445639:legodude7668
8760644:ummumm
30196550:stanez142
20979698:robodragon57869
18216033:yungsam47
24663089:dude71ausome
23620266:cricky5
10771122:will1322
18824507:Awesomeguy002
3667462:vincent60
10013099:purple12jason12
22556757:prestonelam03
2778072:AsaBurns
21244093:killerdog61
17426597:buildingblaster9000
4071222:noodledoodle64
20105622:persondum
14518182:vaibhav12340
21854067:Tiele123
20158801:TechieFloof
39764459:MILIATAIRYDUDE
21838218:Geminox
17671005:coaster246
20959326:Brokenshyguy
12134685:exossatex
50259628:heykaylaa
7992508:TwisterXTG
25666563:sprog9
5446201:justinyuen22
53576008:Canadaswordfighter
1084897:SiIencedSouIEater
13609761:Jos18
2898823:Nawtz
27790701:ghostadventur
14655415:LordXenom
27924807:reddragon2894
23555191:ZanyISP
24637153:coolrockerdude
1660343:Zaquille
14071832:futuristicpopcorn
11157988:chillynubjay
6477289:sharkman880
21133110:xXVegaXx
6564924:overtheham
2399613:zxqe
29725888:1dev1x
19483152:SkilledHaloPlayer
20827503:evilarmyon666
15147684:PandaOnlyne
78491784:23matchbox
5827906:JimMac
22288184:PEGVSSX
16151409:BIBBYCAT
16318423:Etanbobby
16520796:hypnotickagon
21626971:SoggyNico
3976776:sargeantVau
17257549:devon934363
28120315:oddtangent
10149837:WeebLifeLOL
20745216:assassincreed2013
9979100:thunder279
9607260:bblee123456
17230255:bigc123654
53681259:lievthelion
38033067:joshtheboss225
22468568:bluemaxblox
2813365:Tempist2
8034751:chrish2422
7044583:Minywaffles3
12298193:tank761
22166417:flambox
20406496:Flyboy3113
17014122:legostar106
22679520:poopisawesome123
10340706:carsenkicker
19894948:Laserninjasheep
61483437:httmj
29058965:sharklamees
9640441:hallvard66
6283769:justcallmeyy
6266662:michaelcarballo
9866477:oldfredy
24015803:vastawsome12345
20822950:wingman00008
6906644:wisejoey
74937922:ghostcompany123
2907699:lordboy
2776830:jjblok
26158570:Aquafied
3365226:NickyMontana
21199350:pointlesstoy
38270563:leagueproz
15431696:shadowkillerroblox
41124512:tretharp
33746628:block3456
25911846:whosever
873349:LuaDemon
3916019:Xander117
20078745:haydnk111
6710562:markhenry555
3526159:nickj1999
24370547:Vurdelius
25239294:wentin
23635805:gladiator2009
9117960:Greensoldierman
19963275:adamcallahan03
16015101:Megadanny889
22232076:funteen123
63381988:FlawIessO
24141226:g434343434343
13541979:owanikin
10836862:apaconner11
20860564:Chillyshadowblade
15755870:Ninjadude12350
16969348:MATCHATTAX77
17023500:Vobbi
16695735:commander423
36521300:jumbystorm234
22730493:Undue
30977904:fireblazer04
5817184:riku753
23241654:biblet01
28542201:jetpack4545
15521180:magnificentSimon1
4452911:cookiedoughman
24371980:ugematt12
42542896:FlammingDeath8402
54360826:ExoticFlyingsquid
30669480:bloxxer8888
6560988:Jubaka1674
35789650:xXL3gitSnipez
44380455:sammoore3
17395361:JDrocks11111
10565997:sadmadmen
20901975:BadboyJack1
20475537:bahamur
21936507:jazzoo14
25663382:Portmich
19028848:daox
20135593:dudestruction1
21861764:KaiMonst3r
19005746:alex566311
23298244:gonewild343
90847:PeerPants
3205686:seto09
85390720:trovao58
17203741:uiop99999
1194466:jayzay
26011796:Andrewthunder25
16885688:ChickenofTehNuggetz
6752905:t946
30324428:France314159265
5702701:cooldysmas
15854923:satsoap
17564218:davidhig1
35395792:meninblack34
31556148:LOCOdash
3603349:romanko
26282527:123ego123
22944510:himan19775
34036217:Venatorix
23078013:chazmister56
22775214:dragonslayer3443
16538007:happpyzz101
33082631:zombiehead2012
7261640:badsaskea
29098372:118433
88339219:MyDYourEar
38421658:DrippyyVibes
22277573:Shroom_God
72228435:itwurd
2223573:SequoiaT
17368713:riojosh123
4115648:p545
3569010:FireStorm6654
34109996:iiiRevolutionary
36796613:SANTAsmart
11259692:6strike9
19748263:pillav
21614893:tykiller4660
24497221:epicduckymomo1
13468686:Camel0pardalis
44961241:44961241
42600508:MineChrisCraft
42441305:fireconnor234
29043942:WizardArion
3761830:Vert6
1964109:Kalon_Meraki
28081603:shadowcobra54
8689097:MadHatterXD
21914609:ronikus200a
20240995:LOGAN4247912
16105080:travisbluesurfer
24081342:NoWoes
38494045:MrMinney
34783946:AutobotDrift8843
13958061:zzxx196
84601902:cake11000
28112971:xXSlyBabyXx
6923302:supermikee
1445878:PeachesOfTheDesired
24067360:iliketrains88
23787406:max22fun
7213076:Master6376
19176630:oceanicdante
34090096:L9Graga
25586228:redmckee
8224492:iiShortyyyy
72081144:bananamanbro
19934596:Dinosaur5526
21916346:gregguy14
14931386:raman1
21455858:ssgtsoap12
76789691:Holy_MackereI
6021878:daftcube
6455891:Royrobot1
35123447:GJC942
3147733:khan7015
13686133:tiki7
25691539:bomb12345t
19953027:zoronil
20219788:futuresticjojo
21904062:grahamcl1
36614682:buildermaster2013
13188818:bullhammer59
26158838:weehappywheels
15724996:sat_va
16653334:zzartie
5817839:spikeethan
24816258:level94836
21083690:sbk29
77787786:Swdenplayer056
7534891:41rstEliteLegion
18486332:PoisonVoxel
18832190:realycoolguy23
16780510:jorisg
2162173:ghostrider8947
24064880:roastedmaxpo
87443087:KolinJose
24118864:eagerevo
34798768:tthamm06
68259384:airchip
6562246:gocrazyeveryone
18090856:jellyjiggler1
36953763:pokemon98298
1713707:WARLORD6000
7737688:kylagirl1337
21964045:theswampmonster
220878:Calliebuni
10369459:eel79
9724272:jbot1999
3124049:3124049
22569214:Marauder1077
9935828:icey226
37441397:1rmjsryan
13446312:Mews2000
37177275:zobie999
70230754:Ryanboone24
7583615:tameroblox35
17510992:crazekx
13061494:TNTxERIC
17520905:billyshadow
35940684:richtosen221
24418080:evilalienking
9920595:lego24racer
24473869:TotalKillzone
22059266:Fade3x
17631437:homie321
6096776:Daynger
24791211:Toxaur
7320037:crescent101
23177753:greatpin
51502186:HIMAN3455
27578200:acaptain
22842568:22842568
22236667:Dawnoven
26071820:Papermaker
756418:egedius
14914196:worlddestroyer9
2939684:tailic
9929299:rexybexy
9016452:agent729
7817837:Quantomic
25118825:blueberryking
36218216:Maxbrito5799
25329814:HaloReachTech
15221011:phantomrocks
20271278:roblox_user_20271278
37711152:Maximan6705
57694462:RCMP1
21538853:elitejaydin
19517491:PhantomBoy5
24796980:hunter2254
1726356:legodude21
9698168:schwindt1
25139904:dorert123
13661609:bwGHOST
21378045:KANNONMILLER
30226320:numb9
34729818:choclateman86
18831705:Lightingboltbear
21752129:steelersfancool
34258761:Lonodia
33718493:JUSTLEROI
20197076:halo21000
18840021:cheeseflavor
13307856:threlve
25366446:xDewm
27710631:LoardDJ
10403964:superkid83
85949595:Captn_Spoofi
70200059:Craziidawg
20509095:carlos999999
21684989:lufan
20157412:jedidude121
7093747:startrekfan22
24560191:Swoocean
4433207:wardennnnnnnnnnnnnn
20957133:allchen
15969963:BigLDP
9534080:asomman5
8039849:tdcooldude
15528877:tazzking
23813914:tadukas1
19144976:snowmandonutkeane100
6834238:bulldog43
38267581:Skatoi
32580276:tcoates345
40724309:jacobabby
41366901:eandersson
23752043:left4deadownage
38931116:OliverVickers1
31956366:smileyface985
22439304:Ryder829
28251641:bbcreepyboy
9815187:darkspirit33
19390042:epicness23434323
18799683:UrMumOnToast
21343850:jmint
2688038:HeyitsCJJ
4334755:deathrock9
24864099:andandy
17531323:Beto0207
12416247:Chado56
14717120:14717120
21186288:ussgtman1
59828333:D0ctorDanger
21780863:Conner1013406
21220566:wywy0
64454728:SleepyDonkey123
19136189:rabiddarkninja10
5621704:Hotwheels345
1296029:dinobat
9933408:DrRedModz
18037094:guttblock
4752460:hotrod56478
14008462:SUPERDRAGON447
22735769:jackson12256
14848616:nick12dude52
6570088:kenolson
39524937:johnsjs2
24350668:miloooo
28389102:dewroad
7850420:EmmaxRulez
35034953:Piztols
16113160:robloxbot55
1715992:only12live
2770762:CAPSOLEJ2
4406644:stealthpelt
40679030:sibtiger9
27270520:astrojetpack
10189447:LucEndeavour
7206743:MooMooKing
23278746:chipswalker
25821131:ghassan2341
3822669:nathant8882
19426495:RAC33
18401537:18401537
17869674:markuno
9936301:LaboredCooldude
39410954:Saffal45
9773774:DABDOOB
38785471:JackTheWakk
15124403:15124403
37976582:wordedkeyboard8
4504937:sue54
19334207:kooktt
17375663:cade12112
20688939:bombmissle
120782:earth100
13268404:Sorcus
61288375:MinecraftVsMobs3
7493796:OAKLEY1O
14969518:Trevorparty9
27463962:maxi740
30164895:epiccameron44
25798683:enchanteddiamondtool
8622279:matematica48
15279513:fungdong
17606852:NxtGen45
10444703:sgtHairball
23646639:christopher21206
21809398:btrypopcorn
13140257:MaddilynRBB
503215:CooCooKaKa
53366773:SuperStormDude
53158988:TotallyIlluminati
73683527:xXZackAttacXx
3036484:Elektromag
22479111:weakboi414
10407128:Nathan116
21349438:steakwad
35078844:Danger_Kiwi
21293536:ChubbyChase
21537922:kevinatorocks
20396334:wtiir78
18125600:Thruster86
13202924:billybobbobby98
26186508:11oreo
40692574:XxSavage_Theo5xX
17942119:ethankendler
21221258:shadow3206
9856706:DEBOU2
19149322:hockeytrix21
6448897:DENJONZ
40166762:iSlush
31895244:ParticleBeamer
28018818:wisejai95
8093980:roastedbattle
28550444:BossRobloxEli
21325272:firesaurrus
25111417:bailey1178168
23028625:dc666777888
30572995:iUndeadroadkill90
4638401:NickSicarius
17193780:marsbarser
3563992:yann2009
4163240:Drizzi6God
9303404:goldheart45
2453280:Rozie
51875653:wllsknwlls
1046648:speedywiedey
21885316:rockyryan6
45844387:iiDudesForLife
23679995:BenStarKiller
10852795:DesiredSlash123
19902356:eippec
23541400:rainsman
20231810:piperex70
10116451:Lezbacito
5075724:patman5
35810744:liam2296
7211961:Foxgun
1736325:littlebro346
51887217:repmal
44426878:Gueest_1337
20603000:epicdragonman3
15609544:bambourobo
7404139:lWizKhalifa
10313061:badtigertank2
25685755:digitalgreen05
24139967:dan0802
45997491:iiGameFrostz
20827733:leouche
28422989:ArmyManJames90
8412091:korn777
34178917:dylanhundred22
8819324:tacos34
20910001:wiiscore
14288128:555alex
38647890:38647890
23967399:GOGI653
5616410:chrisvip098
8661354:case12030
25329092:1800Ninja
25634985:25sparks
8702387:hellbrothers
2217857:olefson
16108309:tacotacoman6
7711816:superlewisman
19147091:HaloSpartan737
17797111:kite46
34574806:RenOkami22
32330186:andrewgsnodgrass50
5315826:thetrainfan
5368422:nasean22
6738717:OrdinaryDialga
17221416:BattleOfFire
21564201:tman187
2064339:fuzzy14502
21680459:Oisin13579
27622524:Midway3264
28308790:funnyjake123456789
4820618:mrkyle103
15652585:Prokiton52
32255426:Xx6rimreaper
23849849:cwolson03
15199487:jedi7mm
4659989:SwirlShaken
4784997:waliugi
15247139:wingman747400
22643954:GeniusLucas
592842:billybobjoemorison
1293069:MaxFromLMad
32765991:MARKMINER15
26270877:ATCWill
5432535:shotgreen999
27501564:generalyolo28
23976160:Awesomepickles12345
22881603:brickmasterbrian
3317106:The1TruNub
14288461:carter15675
18540061:A22Fox
19136555:Kyle4Z
23122223:DramaticKiwi
5987127:robloxkasp
82928895:MaximvsDecimvs
10002297:BladeBullet26
17503118:arm4445
27593029:AWESOMEkiller635
43950759:Braveice
28874186:kidcooldude101
39072795:Aprenttice123
42126243:coolguylucas9
21845764:Peter77827
26493836:andrewforce13
12313012:ILoveRobloxSoMuchhhc
24287081:aldada
19426896:Dani_Valkyrie
15586708:Tino515
9111026:skilz0011
7384822:jon542
52079248:mohzzz
15688689:oinkster1001
27879831:27879831
20146966:ccmmpp123
15471174:maxbro
13863487:MatthewRB1616
50742926:williamhaik
21350652:AfkGuestFTW
32752221:DecimusMartalis
16416004:jetski2020
9386279:afre3
24287946:Guest81603
5563560:somberfireball
65401438:Rvshero
19127898:sparkplug117
2814048:rasmusst
22484951:EagerRyanMoore123
1536200:Bigcheater1
20693457:yamais
23166550:skiracer414ataqw
18919660:ataylor1234
17248412:BJDawson
10501622:jimy22001
24088740:Noctiz
21133455:bullock1887
21893778:LittleMissHottie0919
9793788:aquaalex40
8521395:MetaLegion
29836834:Dann2954
7023986:ranze
23238938:HugeHugealexgl
17019456:mikke200
15890731:Tommygunna66
32087957:boxvill12345
15720149:seanyboy516
24322440:captzombiehunter
39791480:matthew092203
20189196:ThisHatIsInsanity
58834298:coolma979
460217:rich2
7735499:gunner3984
13583074:ShirowoUsagi
42669855:pig1111052
17409807:AlphaZane
5341008:whitenight3
5068432:BakIava
18118777:IntelCoreInside
36030998:Gooey444
24432636:NegsTrain22
23157321:sad_loser9761
18572464:DevEssential
25122103:needlessassassin10
33858328:shames1
500243:alphabrick
20849493:dxmonster22
21377007:jfrog137
18094246:zivhh
10597591:trevin9
16631865:arrowshooter11
19067989:chillycar
64372:calum
1317743:Einnel
14276611:Tristan_FM
22125399:relampago1204
19275816:ClarksMyName
1131949:darkray6000
35057107:Aiqans
17758256:crocky538
1101515:mrman33
18043929:JakeDeLorean
26252276:mrtators123
29391816:redryder8
5575704:SuperLR
19543677:gandafthebatfoosh
28201412:jakeinator36
24676835:NotTaniaja
19671108:AmazingRicky
24630443:epicbenh
24891202:dalton1324
21784861:Stealthbull17
16704548:bird1122
43765854:43765854
2590618:ermo1
17027070:17027070
59046335:Vaddorz
17468516:strikerdaniel
13943819:kadenhd07
18198953:ChristophrWRLD
15322234:BLK_MGC
32015398:File_jpeg
5894408:VoiceStreak
13555556:cooly275
4275077:bigboygoat
4836088:Skipper888
18927631:funkyoogaman
6713596:kdawg833
13180660:ryrybandit
39788404:EasyAron
23037042:myhat100
25906939:Hypersonic222
23294806:djdean11
1886420:slaterer07
2329945:mihiyouth12
577553:Ultra8
40344410:nick198898
4254011:TommyChester
19645782:reeseriggio
18891790:bowman1001
3611228:duckunited158
17302777:cooper45man
24586474:crazy2223
17323374:jonblego
18117507:MacheteWolf
32319567:CaIdion
40714463:sanderke2001
1236510:CamdenShadowWolf
8392497:masterman73
33142450:RDDona12
16699091:Amikeo
23859107:23859107
20512585:iTimothy360
7299183:newdawg
13157779:XboxMaster3000
21839943:cjryan
28340974:unablesloppyhello2
14910036:pilotburwell
27499509:branyjonjon18787
33460541:bdarling
27884003:iKazuki
64428418:ainis0319
14544694:StratoSpear
16673370:taco3101
20898897:JohnTheBeliever
29661184:Xenits
25854393:mysteriousethangrant
14525556:jacobsmith545
36592880:NEEDFORSPEEDCHAMPION
56113097:Aleksen123
20658101:shanesterama
54645731:TaxtheRich16
19781764:zieglerguy55
18297886:orihorih
40363346:superman360xboxangel
17063768:akacheetamaster
23496850:MrSpeckNeck
9295261:froggydood
943828:jigsawkiller1
7719280:FSU9er1
14658397:Polmerriman
9400319:Airhorn00
4453412:3298545
9847390:loveddog13
23921867:Darkcharizard789
16680802:sean12376
20192305:danmatbat
7063454:SilverNinja14
21420961:MCHAMMER10011
59489035:Tristan1th
82595834:eharv67
21199870:TerryBlack
12024946:vinnvinn3
5573509:DemonMichael
22046105:AwesomeSmartGuy
495627:Khalazzaa
23679433:pilotnumber1
33908339:Beastkiller70
31581848:adventuretimevsmario
7651174:crusher1291
25717258:USSRProphet
2998130:Mrbag2
16085845:legoboyizkool
2072794:anthonyt6699
9347848:Cokodile
5959117:RavenRoost
9138918:FurryYellow
632001:Desmond065
27795439:mindlessmrawesome
13684174:04wathal
10413223:kontus1234
30826759:blockfart
24565415:blooddeman20
14928473:myevilbrother121
459304:EH3
8336556:weakfoggy
36629302:charlie2charlie7
9768244:Renn7exe
20090463:Owen3004
14103202:14103202
5473250:coolman11998
68256556:Keemonster
31023806:ValkorionTheEternal
71722697:Themadjaxyn123
10821827:LifeIsBoring128
5454755:memorexrook
24927036:daishaun207
17957740:bob23aa
22784033:RBCEeryrain2
24890026:determindtom
2778245:lbreez2
19116026:ADAR1262
5495934:briefdragontamer
8537052:CheddarLord42
17632171:Landonblox
11295832:NinjaNerd12
74986989:slimeman7
13181401:ubercrazydude11
23598702:16matthewabcdef16
6630062:Exonical
17824029:dolev2
7498068:WeRuleAll
7889397:megaspartanman1337
35049305:IISwifteyII
1013736:cdf1008
36746377:Russell7983
9946282:TheGingerone
76489055:startank444
71193743:catattackfromthedead
10219777:SilentPrecision
448685:kattleader
269402:156879
80145525:doggieboy900
48586405:Derpydude12345
29026120:squeebu
992975:Darkviper968
53186804:RushTacos
18214567:norajninja
1050508:bigboy1005
14723611:gfudge
27335325:kimmarcolongo
2162045:stargate234
17283628:RareReece456
43826:Teytris
29553143:xCheckers
22004738:aaronms
23948304:JavilinOfCallofDuty
13287919:funnycoolDude2001
18704362:LondonIsEpic
8361465:puppy276
15690982:tyr02
24856824:fartypoop97
21986448:lightryan44
16890362:Hotdog505505
13361093:imaryder
19804316:stormsnooper
22062395:Robin5D
13079968:shreddershane
22273262:joe123456789253476
18878088:ninnja12
22142145:awsomestjay
32145649:Precent
18187637:207king2
37973649:calebrocks202
22926207:shermboyjdog
7652104:CRISFA
24156139:oldhobo68
16399310:darkrevenged
23487109:Yofreakymon
9026062:rynothedestroyer
40904192:slade82
5690860:cooldude039
17042674:dylanzap
24529729:hilarioustiger323
15533117:ryan3245the2nd
28172167:Kugyo
14577038:filip117
15185290:dognaper10
82368908:Spiritouse
16227327:TheHawk2001
11185705:Shepherd2597
27635233:LuzSensitivo
23662415:Donutlips
17811426:Lichking20
473398:aval5
33143682:MyEmptyWallet
20113152:pysees1234
5570125:fireboy226
2641727:kiler1998
6381735:sonic803
3264101:parkos111
13789055:gutters50
1131530:Jonah0529
10652687:Adorx1233
42379203:Colakula123
28214543:ProSkillsBrah
1102183:robuxfiend
23847085:ShaneThomas44
22029606:steveblock
44211623:extremekiller803
10548595:scorspi
32629254:Findrag666
14365340:Happyman1129
33224925:thecookmaster
25301563:ejdj14
17775975:hoverbattle2
15223329:InomniaParatus
14702660:GIhim
8201108:AwesomeAdamB
23211310:teamcoolcat
4311055:Excite
9411662:Tsunamx
23972268:louisvilleboy
6706201:Taso333
1128849:huntergeorge
17751210:pandamon99
20934489:pg4003
19500747:LinkPlayzX
17454459:kgliu
14080121:NotDirtyDan
28166808:killerfox3412
14381071:bushy472
19411623:pirahna667
19048260:JakeLego5000
15058316:anakin7878
20246347:irondaniel123
24757975:SeemlyFoo
4522086:balaarsjoin1
20485358:TheBADBRYSON
26667832:nobotbot
51288713:51288713
30039618:30039618
19975638:neyorocks1
21881094:neversteal
9273552:KILLRMAX198
13164782:Flameleon
21472537:camcam1243
10543455:chilybox12
33562716:AZPR0
22000116:Heater500
4567815:Aslak321
20773671:fearlesskilla123
73462363:yvybtny
16392367:thomsprey55
24306463:fimpen123
7898229:Dolphin129456
22872027:Sirsmokescreen
62486206:lonbrone
14243363:redbull566
36443183:Ashoo8
22817346:skinnybob6215
4512412:Manroop
15283296:22essenjay
1922262:tomtunes
26891836:bumblee34
16432562:redstoneguy
35668224:terrenium15
2894150:republican97
22899073:Teapotrobot
14851503:wwwww1037
76789539:BeatLPer
25695539:Tarkinharkin
35685940:xCarnival
56921062:Aro222
6850181:lazyninja9090
16272946:oelx0
11181066:migete1992
1471616:badguy1499
7560644:Roboticalblock
5878570:jaxt516
15023098:KINGKITTY12
25393344:TheT1m3Keeper
21086039:blporter
16421095:12qwaszx2
15735150:Pieman2901
15081919:nathanthe123
28095991:rafy3554
20896901:nukerd1234
20157196:Einstein32
57859475:kewldewl99
43196937:QueenLandrigan
8455980:awareskullheadz
2623802:Catfood024
17753873:Attack4456
17204284:DONTPANlC
27709737:Obbyexpert23
13532206:dereka25
52214106:Waffladon
29744334:gooze123
7656878:HashSlingingSlasher4
32346657:Knifedude66
43737252:Nick1988987
19484977:HHAANNDDSSOOMMEE
16285971:CaveCini
9540901:whisperingspieler
17248810:CWlidcat
69771519:flex254
10602350:dinoausaur
24395960:brj25dude
12119064:alfwiz
47826353:maxbertie
20481408:nicky1328
6807781:starwarsfan998
32435409:fireboltblaster
2814200:cybermanXL9
9031739:1pie23
993102:wyatt417
25861955:BitLynxx
21524257:21524257
17674760:AwesomeKnuckels
70419456:unknowngamer6
7073432:Cruhzy
27966329:HappyKittyFriend
18581488:stonefox357
927681:jasonandtom1
3104766:SoSolidSteve
3766901:SpaceKittenZen
21531935:ItsJasonOfficial99
27867369:Convicium
21725477:foodisgoodopal
9736054:killanoob21
20864201:justintroypick
9993930:xCrypticBear
13403152:AwsomeRoboPirate
17367780:nickstir122
34371041:vteche003
5233830:leonbling
8871956:spaceboy521212
6409780:dodudew3
25004965:RareLimited
16054287:roboboy16358
32455005:jonhfkennedy
2124954:Portaled
19206902:SuperShadowXD7
14611871:dronman
553439:Spartan474
16850251:jacobprachyl742
15785161:cloey9409
17093862:potatoman99999
5313800:FIREWEEGEE77099
18413135:EspilonPineapple
30404718:mehinator
615237:Sealy
32304061:harry12772
4962138:fanscottshannon1243
25022532:eviljaydonrocks
13203341:COOLROBERT2112
35221292:richardt77
28431223:rex2988
20133849:ryanbaxley1
8401129:Von_Seth
7197785:Generalhirshyhorn
231055:snake2008
14916672:RyukoMatoii
18280195:atomicwaffles45
21284900:fastrobot5478
2224134:MrOhnoez
15201612:3trl
349863:TOYSIPO2
31651691:31651691
6328252:MrSaturn567
61714064:NekData
16458075:ethan12345539
6752914:zachattack90855
16511026:laughhableappleman1
5357108:darkshad
10482159:DirectDoge
24219609:badsonicman
23535667:Dairy8
31550232:dani112004
20234600:ScarceBlackops32
33318200:Afnohu
17955664:monkeyanglersbrother
40376976:Marshall851
22846693:Temeroal
23970977:cowboy0814
16418416:mineman0123
370393:BPAW
5590155:Jon4Sonic77
10631805:Euthydemus
7199743:artycashew
9617192:gatorevan
38612541:samsterkewl
3829207:bbbarney
22829715:beeepman
3434960:Ian7581
24079799:zzacman
190326:podry
51442720:samueldahello
66279944:66279944
7485345:rescm2b
17331286:superboy22416
20760944:AquaticChrisRock101
8107624:majorsonicfan101
14956014:sk8erclh
26469582:SIOUXperNATIVE
6271530:IzzyBella94
21589993:afraidcoolptws
16647580:DavidLucky
24139948:12897
17804677:pies4003
9970435:Silvertell
2063177:lol9224
31847224:mwblackops02
24270652:h3llh0nd
22609326:prismbreakSL123
33540589:daxter1934
23560738:roperclayton
20920034:FurryGrayWolf
15611390:Tanker273
19484010:MrTacitus
24434691:24434691
17177829:jonathantheboy
14123580:joemcburger
20702371:maxdog56
28037613:noobthatisangry
10741644:Jetta9316
19434159:YumboJams
5249763:joeyls
25153946:Mr_waffles52
70545153:ZeroKiII
6689644:Robocapt
24529469:CindyBewitched
9572995:NarrowAlexander
23529712:Crazybuilder10
23996602:mcpenutman
20757182:greengoblin6
2309453:pipluppal258
298495:ticman
24320250:GeneralLee010101
23681452:lateArcher
20827631:Meeplingz
4080207:4080207
6015770:dkeim
6340290:ww11123
38205025:ice12345566778
18696079:SamC130
17933784:stickmaster00
32910284:strongwolfgoodfriend
4249520:coolblue874
63687691:THEbloxermanRBX
32074835:Snow_I
17207849:derekcoolman222
40082232:sixguns12345
24525225:PlumJar
8561379:websterj3
24468958:chanticlear
1207964:ares1192
10672294:firephoenix1997
3013417:antsrcool
16641063:mercaxor
8201519:mario472
10375343:ADankPineapple
303262:Lewa1267
37023929:LaurenXCX
19887574:Nike3218
21715881:moderncoolman1397
7707349:JamienChee
25182540:ImFreakingLegit
21622409:ImmenseMartianRobot
18275790:justyhead
22410368:Lukaisawesome
16810777:theoneofall
17871989:17871989
8597775:funsize85
27406061:heshatonaturtle
36179368:domoslayer117
5826936:Seeth2332
13952487:Ioocus
39691664:CristianoRonaldo7Cr7
9172625:Warcats7200
19085332:buzz330
4137969:Mads303b
57880562:xandervl1
2491191:9683
9428877:sangblueblue3
21873853:D2L5W79
4227079:robotboy007
19769002:nepse2000
14158545:14158545
24215112:Hunter_545
5367585:call4dead3
3318702:bobman157
28434074:NewBrennan
32842693:Swurg
34109620:Levismash97
25232942:samirax
2450013:ripstoic
24345240:axelsethperkins
19143680:jinjina
13897862:Sureshot1
62674439:Hiimacoolguy10
6595344:brandon702
1926290:roblox_user_1926290
4781905:HitCoder
36135619:mommy123922
62914050:rajvinder14
16107953:RealDawn7271
11857363:Expoltionn
10300216:299902
36771921:diywar
47649293:Azami_Foxxo
16445206:fireX20
15018828:ElToroLocoYogi
16092322:colby4476
28495206:JamesFireblox
77822306:c001dude2004
7249023:coolsonic6
4830235:ColderArt
726464:SlNlST3R
23691521:SarahFreeze
18021789:ioncewas11crowwow11
14744603:capitan234
4550778:cadensm1119
19025090:Fletchernator
25132598:keasty1234
27929562:supersupreme123
21737307:hungryknightmare
31906295:sesmonkisj
31310275:shutupazzjr1
22956317:Xeskey
4480926:armybaz
4740559:pieguy100000
50650513:Bernandon
26409975:somberbob27
16513245:commanderdeth
183511:Vinya
9745672:mattmatmatmatmatmatt
26891963:0Xek
8012609:sniper60713
24068242:iwellwin
605017:HellNeko
48247764:Madeline414
24940603:bggnr
8911910:umsomething
261335:OurIndependence
19093024:ickypop
243139:Tronnic
13387762:rusticzombie2333
13414392:ash36912
18166524:wickedzack1124
21040993:LordCreepAH
17180876:deathavenger11
14778296:bradler
24763115:nicholas101723
24189182:mangoman1212
9012733:Junxel
17821256:braybray45
8770542:maxthegoodboy
29613080:FireChief72
10524532:earlyjoe123
1000717:Cylrix
25199173:robottrucks
9066623:robotapple
599439:Jonathan203
8988147:vance127
27584495:FlameThrower851
8280376:awsomeface900
2599564:Quijibro
19144718:yuki2468
18574242:sammyx354
199567:hanyodude
11450564:QuaintRex
25123359:25123359
29590207:Spartanimulli
29407162:jocker34567
26670194:ozzygreentracer
22147695:bvolkmar
27799321:CodDevilZz
71329065:The_OldWhiteJeep1995
5960259:jjhitman615
321912:Zaqre
62843177:manowar23
29679970:monkeymaker127
8686378:loganswashere
32353137:DStorm10
20097824:tens12345
18314685:miracleone
24905352:Tymaster10
10467328:ova9999999
28819784:Roichi
16452315:megabestbuild3496
18954443:patrickhall20
18445872:Coarion14
21106834:misstaylorcox
63669347:63669347
9986422:darkdoom515
23577487:legomarshall
16711446:AaronBomber11
23571471:SamSummit1
17975535:TheSovietBarrel
26292169:steven8595
15855980:catbradley
19067153:Sloan32
23982552:cyanok
1278478:cain619
35676536:Dlott
9531325:CharliePatrik
20800221:zwalie11
1367085:1367085
45816204:Icedtea_2512
24460893:Bubbaman0098465
17643700:titantic2
24957938:chasblazing
25352049:MLGMAN360
65503893:sirgavin215
22900925:RYAN128XX
22026634:coolsuperdude45
25785055:smgok
30720731:Eastonator
10581461:Oversett
7449837:bladeslice
14335132:seniorsquishy
25525281:Qoz_s
14572738:spartin77079
30502217:CommandoBoom
21892526:kai325
25129669:thtsTuff
27056483:IanPeanut1
3870158:ndlb4evr
16226787:Incredibledragon
31121937:fearlessdummy75
17137373:skaterdude454
13804688:brandonmiccool
1661381:soip
169692:Vulfwood
17306197:yogi2224
4022063:ZAPierZeta
4220998:wogget
19165217:roblox671023
25282050:goodaidan124
38757371:DJFIREFOX2121
14078621:seth1469
34840810:keenanhanks
7198327:xXxMaymay_LordxXx
23007698:XxTrIcKyxX0712
21273392:strangecommando
21066039:zackattack9113
40328423:ItsNineTail
17435883:Beastkeeper
43307228:marfeet
44928203:IordMurdoc
1466613:InkBleed
2207290:yoshieman52
9240187:coolshockwave101
1027623:Bowsar
25277066:kingkodi
9430503:VoicelessBoom
54133854:Alienmas
28636953:ExecutorDynasty
49682728:DevanAC
16332098:Sleepiemoons
14671501:SkilledSlayer
15456642:SneakyCrazyEric
4230191:Soapy29
28275991:monkeeeeee00009
19610688:kjmon2000
66686839:fancypantsurl
6826495:darkknight115
9245878:speffy
22881934:nico8822
73474913:ghostxsquad
23057771:Djeray
4971223:bread1995
16279903:skintylittle
22222877:monkeyboy455
24419074:kayden101010
7986230:pancho1920
73710188:mxm222
17424616:SuperSkit99
24598701:Andrew327327
5325277:connor1177
20728590:BraydenCH04
20790277:Adrian0999
85330997:JAKE2225232129
3014506:buildersteven4
25653827:johnny90356
6329853:sk8terdude840
23689455:Hawkeye2010
15665111:akbsteel
15292346:vastjeremyscutt
3095381:coolman7001
10109622:DefoNotSpork
22515200:legofreak302
434455:434455
31631597:llamalife2485
15831869:flyundun
26258667:pudding85
1489902:blingo83
38202163:djsamatt
19372578:burningfire333
76625145:LovelyRowan
5140157:Zeedax
20191420:3C3C1D11944092777
15310645:dogs12334
42819309:filipposbroggio
19794824:CcDeicide
31129376:Bullbuduck
14012100:syout
3204928:Charles181
20971935:greggrant54567
15677752:spiritleon
15573941:NightNation
23148908:joshshannon
39972498:Bigheadus
6336397:Gamerdanian124
29378019:ldondoi
18362793:Ezioy776892
24935444:oldkillerbird
11060464:andre207
22131774:healingbot
863000:digedog
1163215:werts15
19477665:THEBEASTLYSHADOW
18252211:tokyotoweristhebest
88122525:tamianddav
16055802:Fredoman1234
25861650:ConorAwsomeness
17848005:caleltale
23228923:Trainman2012
19091998:hotrod4567
52995113:KasDerp
36387354:36387354
18001398:upsetkicker12
317131:ThatOneRacer
5683419:TexasAces13
18619425:vaporeon0134
31039049:xThat_Guy47x
20042122:puppyindathouse4
1663106:Ferraridude
713500:blais
40299891:josephp01
61671349:1SillyKid
14649482:sheriffricky
6939377:paul7842
6977483:SPEEDSTRIKER
2593626:nenoriu
21630556:Oragon123
2553884:train21
14991567:Numberless1212
4783261:TSOD
9843288:sebby36
9835084:TheCrazyMythic
32987295:Blackmamba73
6447606:HAPPYBOTS999
8481878:800000000
17738892:RYLEY000
17430484:helidriver10101
4748671:ulysses6024888114
18646921:nobletion
11416839:GodEmperorBread
20196627:hioDoYouLikePie
45897607:sniperbadass119
34782920:garrett12871
80119:stravant
3678505:madwill756
1688395:pokeyou3882
22389957:groudon1231
22161913:learjet459
21481183:roblox_user_21481183
1010585:antiman234
21980381:xX30HITCHEAPZXx
5014434:dangeriss
24443509:joeylovestiger
25000399:Skaia17
31040723:JoeSurfin
29978148:sweetkaseybear4
5522830:udoo
28220727:weaver08
23321591:giancaka
29367500:PrimeFPS_y
57506487:ddahlenburg35
34957000:Jakeeybabyat5841
19480676:Wr65boy
14804854:ghostbusterzane
1359398:JTF2Operator
225408:thebestgum100
6937796:fastsonicx
1430017:pspjohn1
38383259:TheFamousPotato
38488675:Experxment
5724122:robloxzombiekiller30
15908668:Duke402
2297305:acoundou999
29517194:brayden737
23616016:bryan11cool
22459203:davis11112222
52842533:Drake297
25007147:13aronuid
5339441:obby3404
20194477:SGGrimReaperSG
10513654:CLASSIC4L
3005622:MrBil
18962984:ptd456
23940988:dizzydinosaurs
45004168:IWubVinylScratch
29913538:cutup21
978566:poaclo
1502357:jdiego
19769979:AlexanderVangansen
77317136:deltaforce1626
34871191:Kruinova
19297801:uglymrugly
87293173:SatanWaz_AnAngel
33817919:elian1212
6612731:segmentation_faults
584160:nikluigi
18959251:strong465
17694229:Hellozoe
10719673:personfred
15579858:shadow33499
20946846:Weirdo02
15990536:superNRD
3630420:885sdwsdw
488505:coplox
28063587:chyellow78
32094984:EsJuanMehGusto
992210:ATMLiao
7863811:eglc
1898358:YouTubes
9081473:johnally
45439359:EcIipsed
20036308:SuperLogan624
2050413:spazcow2
13432067:bambam6917
21259589:thomas6433
13753147:GavinthegodV2
21679913:aser1121
21560954:whatup9999
22518275:Oxandeath
24541929:kjhgfd009
19749228:coolnerdthe3rd
32043921:hellfire832
33390521:derpychezburger
22524388:Davidhumphries2
9371240:BOBigi
21968130:scarwill
5531321:Nightrider52
25723147:juganuat
35428382:cjohnson3651564
22102140:epicnoob98
15680550:foodoo2
13170671:deathdragon1100
35752609:Goldxenn
78263279:TotallyNotAGoose
35107284:NICKMASTERNICK
10600894:dude19099
42480573:GreenxArrow
3508534:2000Fireman
15732953:drillingracconkid221
9175867:memonkeyman
23112892:earlyugly5
52633009:soldier634
20188669:Cross_Shot0
17302086:wilbromley
375413:Suldo
69656674:Bdair
10819437:thetricksterjake
4221824:worir4
1820824:awfrica
15106838:AstralTwilight
21160337:yeahbuddy46
6973228:cartman2359
19662127:mmmm124
26681181:pratoran
13198647:Airforcegeneral13
11816408:sucker1025
9289240:shortroblox1234
279432:blockbilder
4482769:halo1835659
26110836:purplepenguin100
20791448:xXGiggityXx
16830594:ZubZider
36048188:Tangbot
23525997:alror
15876377:joshy15
4421949:TrueStar
9510514:opos231
10886539:Kenworth476
2643285:HeknTaxEvasion
37304643:devilvampire
4456967:Legofsteel
59402811:Evy1219
8771382:09terminator
13218570:Arktec
81267507:deiantix
8020113:ekona0
30980099:vin86
14719067:coolsuper55
31702930:ravinboy123
16230287:NerfDude17
10681899:CoolYankee
25215176:kyle2514
17429975:simplysmart123
5976577:Atrixeagle1
59611735:handsomeboy2256
15586401:koolmax1
45791548:moneytree27
3009580:Paxdoxia
15013808:InferiorBaconOfDeath
734327:333333333
11531663:11531663
15611068:15611068
14372820:CalebBA
8717902:TUT808TUT
41587191:Ray0fHope
3636705:patchpirate
6077761:jdm281
16255827:tomgefen
18523882:Blackshadow268
23204197:IcedHowler
8677753:codeblue11
77949031:idogolantb
35826111:1357lion
28169893:Kaioken55
8702916:Nubous
44808412:Sterkte
31274148:ZVMinecraft
2771975:TherodontoX
1166484:dcbillman
23549128:pjotrdevos11
19918995:Linkwes
19982125:geencoolman1234
10097799:itsmealex61556
15650632:gd929
23612607:olivert48223
16735431:rockout2211
10187641:A2LitreOfCoke
27754163:BcN_xQihzry
1781268:sharky99
18158166:CoolAwesomePeep
30591499:ColoredPeas
23893749:paul2214
32528511:LevelEvil8
758336:Domtron1111
14604760:ChaosYoman
13389912:jetmister1233
7360143:lordlego545
24768375:Rayalan
21577267:UndecidedTrout
25115540:roblox_user_25115540
41960749:TheRealBigtf
36245962:Andrewpeckford
2480241:Evisceratoridor
14775393:AceHero2500
39672880:carldiamond
13760064:Nastyzombiekiller99
16405330:deathdragon704
9221430:soliderlego
26320268:BoddyMansionCLU3
6117465:Cartman433
20166322:AdaptableNinja17
9177530:rajkonda123
73126688:footfacecat
38114630:blitz49ers
514762:Ryuuzo67
9232138:spiderbubby
16541172:petr42
6052025:lightshadow27
2947630:cooldu33
939491:939491
17990172:BlueBlood12
29247944:Fireblastr55324
8709321:matbout
9545392:luke942
1298230:Wingedviking
15656305:Surfer4000
43702605:ticklingsquid7
13078424:M1h7
29508732:jesseewebster
9927398:Termin_andrew
8328956:Obsidioncrafter
68524956:RandomRoblox_YT
16958838:maxkallan17
39651297:superpikachu2051
24239537:quickestjayden123
16015876:miceyib6ub9
66016908:TheCosmicReverie
47477414:zayed790
21093423:MiniL10405
14864594:bronbron123
3325921:froggy2009
18025219:redmall
80819525:Ivanhuong12345
2605681:jac66
24249735:fail9987
15635997:immyja
24411768:kidcudiistan
46018877:lerSkytheKidRS
20775648:domokun7
7948654:dillistone
22486116:k1ll3rxx
13608479:coocoojax
35418534:colegoalie27
9619048:coolwinky1
9186468:chezzburgerfrog
64106247:blazesniper99
44555879:hazmatdude225
32174449:korseamonky
17805823:James2James
32923642:Quinton3331
37218690:GaMiNg_FiFeR
20200235:oliseb100
25605087:rocky91101
5497836:mtov0000
14295542:himan239989
10770500:10770500
13602170:Michaeln810
4399765:Hemebru
31339379:PlatypusStudio
8044679:Ryanr23
7106618:FabalousDumbo
5078368:F1oyy
31857325:SimplyRobotMC
7740044:MMDrew
35275755:NJM9000
21870361:popidamason1
29518633:coolguy5807
10632474:Frewff
8088555:VixxerS
5417878:mason520
13317570:TheSpooopyGhost
8808679:MeSaLikeDonaKebab
1202425:Extreme8Gamer
24625802:SovietEmpireCCCP
902833:Danger321
22767241:200339931
33447322:XishumaraxsurvivorX
25781309:mashypatatos
23905080:nicemanpan
26993807:DAVAN007
19585157:jamely45
18003426:Zothen
1825503:Blackrep
13134492:yaroslav33
21705378:imwiththeidiot34
17867852:SkyWalker933
20409373:amax248
82132565:bobiotimson
28909325:Soccerball125
1432102:StaticLuue
2925799:adamlh
2263807:ehero31
668899:Str0nkT0nk
15925652:jimbobot
18116835:Gigantaurus
36275394:shrillerman
14771166:ninjataco68
22371368:LittleGoldRush
1088871:JennaFalcone
36392956:winterfun19111
20046445:crazyDronekiller
890772:RascatoNantako
36253849:popropop
9514360:ally200114sissy
24025462:MaximumDestruction2
1053472:o1o2
7854881:james32101
7040488:LittleMattman
20269635:HalloweenWhopper
17656112:Genions
4336002:William1717205
24330853:bloxbash1000
35481171:trishtienyoung
15272684:15272684
24089226:fearlessben67
28061110:rusticjesse
41889944:mancoolguy20
13151030:Nikolai1399
6773058:Fill12
11482791:lRobbie
13490638:extremem550
5995062:ItsDatCrane
14377343:ultramegamasterchief
13545515:coolsnowe1357
32066610:ceez619
28326098:Crackillerz
251758:Terminator3000
21915032:kingskul
5083405:sarge35
514445:NerfModder
25685081:Iamkitsune
36932537:creeper098765432
29302509:DrDevan
22484800:nonstopswordman
15911956:Aidanlord1
21861562:Kitt3120
16310207:FaZeScott0568
18806503:jake84619
2907541:maurizio7
17441116:monopoly15
31498333:MultiDarkAssasin
3389267:howdy935
13745251:13745251
3324792:anakin4081
10476786:COOLWAR29
20502153:Joe3502
21509740:bray139
62890871:Jagger750
7449951:xavier1234567891011
48513360:pancakeguy11
79821:mathchamp
15965767:islandeagle
3961592:axee33
32094207:gerrit9
25268848:Zaiborg
7255440:KanaKonpaku
19615126:R2664572
1484522:freddy4258
60425210:flotsamthespork
8633056:tnrocks
20393150:princezoko2011
6726494:ziplocBag
15497548:Zombiedude58625
25075192:xxtoxickushxx
15396277:woomera01
14579990:derf6
20708092:rubinanatordj
580968:tonyzoom55
6030467:pumplead
35413899:jack0789338
7783610:DaMechanic
6977347:bommer599
7615342:Smashman25
24665701:gryffen333
78526137:alpha31256
25453666:SpartanHawk44
34539993:mclauge68
8819895:pikachu0813
23960087:BumpyJake144
14103747:nickolie2114
20829369:jupy123
11403491:manylbp
17685429:mariocool7
16149444:nacho26
5865636:aGalloway11
28896494:roomybraden
45611042:iicookiecreamss
3269531:tomoe55
8004927:KatherineFtw
22977841:McNoobster2G
8482106:logan90533
31932539:romanelli
21652067:lightningwar
2973813:Rocker098
63974583:43tesgr
61600539:clonetrooperJR
25502814:xPixxieAngelx
23302003:spynetboy
25208160:longingkiller33
9631836:thesniper175
22862292:Wurfek
21150764:noobblue
19920911:trainfan2
74745657:Tempora_Finem
15527457:poopfart123456
18101498:icemanj9
27928658:cole8048
9993697:reelxh
21824885:TH101
19538338:DAVIDINFINITEY
6766227:Epsilon9_Commander
21203456:james1104
21429855:quicktristan99
17833165:sunnyishstars
6795406:demonboy226
18889785:awsomebird25
37132135:navarroFnT
31035287:AXEYBUSCUS20
32325052:Cj535OTF
19922369:MetalGrowler
4146078:christianng
15212248:akalex270
636664:HaraldKruger
6672292:James14tanks
5821173:BigShrimpBandit
25305786:leve2002
39435867:goldenknight21
3904736:xAirikanx
183772:Ghettoelmo
45193148:DrakeTheWereBeasts
14022389:captainfartymcgee
3381499:megaracer360
18455314:korey01
23914255:sethcarlson
41380763:evenelectron101
17203321:dirtboy12345
19605892:Elopus001
10459174:Vahlokzin
15985641:jaysray01
16969259:bobbo57
7677415:Daxter50
15710945:LittleVilbro
40170603:X8L
10272200:gunsterman123
8359356:H0I
1713706:bomb1701
1861443:rex284
19417916:CrimsonOutcast
8567775:oggehej
11538411:MrPoofyWaffles
14168486:massivesagie268
19113478:DeathBlast20
22578427:stinkyjangofett
1887355:JTwinleaf
8161898:YourEMENY
31857018:YoRyan1
34538539:bullock5
8089064:Melusar
28174848:supwarman
566453:P2Uniqxes
28832010:AllieHarley
23932282:jake29927
29390477:dgartner
17612064:masonc20
10655716:auxezia
24303176:coopy543
23545030:copman615
20734486:yummyjuan
8440549:smellyjohn
72019189:Toadette333
20964304:Gian321
