53753903:slaymore56
46716:materaman
77391955:3Jackz
17712786:InsaneShinigami
379494:atsipar
19077965:battlekiwi
11966836:Iris_Yin
81290178:danard77
70255031:zandiz
36516133:nincraft12345
74043757:DeoXy_Z
57061611:RimLyka
30375637:remke2004
28692341:MoonLiteSymphony
52222551:rusugalan20
19634200:Izzyyyess
80745986:redwizard15
21975267:EiS3U
34281019:ducemartinese
57181584:Apelexium7
29050898:orbbeck99
47608965:V3loc1t7
84124670:Caarb0n
77518707:Dupeb
13470042:Errai
4761522:agabrield
51628436:Griffonly
34600159:shaws_employee
72288354:TreeMCadventures
74369671:h3ro1212
81483010:Sytni
17751626:wildcross123
18094111:BrotherDeath1
7364340:bts123
51329600:dreamingjune
28881794:NyarthSoup
60820642:DARKKNIGHT5671
25464341:Overstrand
27934288:shadowvirgo9083
16623641:CorvannaStakenelli
74595349:Bombiee
80809811:Dai_Tsuki
68476016:axoIotIlll
63781191:MDtraveler
30018997:IsaNL2
87258902:vibing2015
72393713:Natalia9567
26889820:QWizard99
65923994:65923994
64489392:destruchter
37720878:Kajorii
53708787:DaGaminMaster392
72343966:Xgamer357
19235796:AFYE
21994740:neo727
41098920:CuteJed12
57247392:Rezzyfox
67019915:awesomeperson4296
60160573:elvish9
14598306:Emily16bb
82335435:ThatMageYouKnow
13541444:jobster999
79150014:dmontae
33048682:Xanobytes
54296418:ayaantahir
51084861:ketchupplady
34592279:princessaliya
76968467:SaikonFate
6009052:ohrfan
84120332:M3RKMUSIC197
78397351:abyssaljudge
19342884:Konvetur
4706975:SirNoobly
1091540:5blackmage32
26019698:peeps7
85791869:Jorg_ie
39688485:BriannaFrost117
41311800:Nekke_8
45028726:SkyMerlion
15638389:BOOM3R
38284849:chloe655
58881443:AyeItsWinter
45919914:Limitious
34472122:MechanicalDummy
29450436:DraemArcenciel
1593163:LunaScripter
54107732:Robotsquid5678
5711549:yout22
68288778:kayvsty
68887740:bloosam99
83280780:Konurai
87444805:GoGourt
32890567:captenbuffy
16632939:SirMackale
446215:Kengion
62972510:huy913
47802797:witherskeleton6
40290334:LarsonA3
74460254:Thedevil670
80721917:Ali_bi
64308001:bobtestsubject
18166258:Tumentia
4397833:Quenty
21526078:juspow
48515987:Neuralyte
46431990:Hestiya
85917463:Sergeant_Saladite
37847848:AngusCampbell
2072563:romeo123456
8870238:briana999999999
87416904:lego18ryan
69225164:cadiiin
28819039:iiMikaelsonWitch
34607502:BreakOfInsanity
53331408:adien121
66624222:Astral_Astarte
78022698:BlueEisBuilder
21343195:OtokonokoDelivery
86851437:SeekHunt
61385600:TORNADO98765
46792839:Enlasted
74156866:DogeFriend2
65071441:alikuroha
26531080:Pokerawrs
87997361:leandromeireles
1720818:espurred
80164117:anonm4ly
69799363:TR1PPY02
32914624:Gwyndel
64386058:joeymath
53906559:Kierniox
59527447:friedcavia
86060230:sadRiven
8645849:KParker15
59592361:ssuperbananab
21800575:SkulduggeryZ
19123635:SubjectVexon
74852908:gigababao
56229756:56229756
55546423:moomoo10moo
87086611:johnjr59
44642276:SerKnighty
67040171:doggykong5522
46889023:Sr_Knightt
22940338:Vxssal
13839235:X_0
44572431:yaaaaay24
41068374:Noxsaris
45283143:SpelchureStorm
55639517:YunoGahsai
33794332:nconrad
578062:TsukiWaterslide
30411290:iIlicitx
35511439:Speedminininja
22215947:DaRtH_Geebus
54962846:KrispyKremeDonutz
9504294:KerriNouveau
50504617:manicular12345
5933538:Vivitive
49181625:pebbledog1
65032625:65032625
73260889:OranRBLX
45357439:savstermaster3613
88176015:juunohs
87511766:kdudley2
33374957:RA_0H
17663421:sudsiee
87627985:Asutoraruh
25585667:Namaline
21082465:deathdemond32
59378141:RecklessBob
47960278:TheDarlingZeroTwo
78005995:pomerainlover13
2059443:tere20
45867625:rocketmario1
2455972:timequest
80979549:LordofFences
5138888:VVindz
40548774:Dev_Figg
68496145:68496145
59961665:callmesupe1
3618848:Fusion453
64654612:devExisted
50844517:WhyYouHate
38952336:pfalcon365
12552496:dinoman26
66828548:Doxi0
9602705:Varzio
35366817:Boran12345
45159556:NeonSolune
19411984:Nicole394
33655652:ArceIius
44909077:AlexCookie
70936327:borispunox
58273991:PanZelus
27685996:BoilingCRasy
18267221:CandyAlice
86467319:w3ja
16435627:TantasStarke
71917619:71917619
1709364:Worgen_Infiltrator
25603232:DrExcel
23239792:oman1903
56343759:iLoveEVOheisTHEbest
1475319:Oldest_Individual
30859231:paintballcamper
8751873:oYahiko
73796410:MudaRush
76154560:stabo_crabo
17815519:funnyepickitty
45057253:Akiryoshi
59901908:TamayaTz
73426510:freddy1969
70937242:White_stache
49287461:devinchips
62355189:TheZapTap
86299262:PWNXD314
5404305:Benthusiasm
80416777:brysonroblox123
40868976:ShyguyKom
55762633:AZGismo
39498190:therootbear
61076172:BIocky_Person
54902131:54902131
47393298:Deliciate
9075549:R3bornDevil
39147711:KuroRei
74658978:Punkilonibus
66013638:bigmamamars
34791885:quinn90002
25747246:dj200220
56663888:HoonterMain
35502138:blek90
43198463:Budd_55
42148164:adao007
66535739:danybuilder9000
39234598:Smaltin
65135680:Vaeb
78695225:killertrapp
41310705:TheHolySpenity
35514473:spyro3601
77923497:AeoIusISWind
81244197:Rhisuna
21883887:Lexiphanes
61146675:nomonomobear
83998727:MasterYodaTR
42307122:Akiko_Doi
16491358:ven139
49007346:MichaelHeseItine
3083459:SuperRobloxNoob
76338728:BansheeSniper
21075282:MisterrSpeedy
20883524:Thirty_Grams
610227:Kyoneh
40001749:HailTBE
49891834:Infraread
45111682:NYANOTONE
82514617:Mr_Asian101
40522713:missy1missy1
36138802:LPSLover655
18322901:arturo60
29847597:killerman4254
78304569:diamondpigman01
83093488:qw0mp
26577622:Theo6886
55067103:Rainbowdash1420
82209739:arcticpops
3037475:solidsnake68
2230174:mrgoodburger
66182253:Seg_ss
16951999:Bigrounduzi
61539277:Valshire
76719839:FluffDragon1
72037865:BIitzkreeg
1645431:StayingDead
25813641:V1U
22099688:kashikoto
19119805:jet522
41966234:SenseiLuigi
58230955:XxAnimexWolfxX
27693314:LunarXerneas
4236575:thunderstripe
41737374:arkie614
33597954:asdfmovies7
66004288:21west
29066317:Spioledmilk
2739034:hockeygordie
47199276:Cr0ws
58193554:xSolafide
11263538:SwitchOff
17969736:NottKat
28202470:sgroff
33815189:iSharkyy
44840031:Buddermanrong
88086395:PlaguedFall
26702409:ninjago0708
41530707:Lordcheese132
24314762:Persalia
7758901:Aystre
32271372:TucsonTuscanbrianj98
35768195:hqker
21529906:roblox_user_21529906
8827782:Sollace
70193547:JackStopPlease
87656146:Mack_NChez
18824549:stingebeard
73507157:izyan14
42200507:Ivyreds
9654270:rockyfalldownstairs
61020574:JaceRevan
35293131:Shankiey
5163704:NicklesRox
88400325:MazeGamer12
68676186:bluecoolblast
79524452:lihaoyuran
42120089:OCJ_NoWeaponsGod
50260795:xytgyst
36013521:londez
49469784:kevinja8
79429055:MillyMollyMandi
85288309:maga9029
71329780:alexandrodude0916
22761556:Yoyoclown8
81422079:punkunessn
84663767:romiah123
78450503:TRlGER1
77096428:ChillyGifts
52670908:oORoyalOo
66516182:BunnyB0ss
5513997:memeingful
61488883:JMatthewJJ
42244467:iiGlutenFreeMf
21272597:ClassicalMethods
28218315:Studder_Lleventyate
51547501:robloxerjonas
59932202:xcenon
88406836:Gantheflamelord
60496239:Morizante
15912853:Geeflakes
20364691:AlphaApple2
61406293:GreenFlame361
76253821:luckylucas9
49451101:bumdisik
406175:roblox_user_406175
36523313:carolion99
73745182:danielyoyoyo
5643042:pirate88r
8364586:paigehappyy
9899492:honeysoup
18751639:FettiKnox
2659448:Noodle_Games
42056286:darkrenegade
70217788:Slxaz
40563292:Skittlette
21950:HFG
83759115:Mayrostry
52243727:sandwichlord1087
23857965:EvilstuffGaming
58029213:ROBLOXamanub
237338:shadow76775
24634203:Hesvyr
20449294:InfinitiSkyline
34892651:TR1KON
22097782:GanulfTheEpic
87500396:SkyeKita
13334565:Coleshlaw
82547864:AsianTacoFeet
80941731:ParamoreListener
23558830:Greed_Ocean
83538087:cesarlolol
34788405:snorelax666
67726933:YonkoKenobi
46279716:Ravenless
14484493:superzeldafan13
87122836:splatoonmaster45
73409156:StarStark1
53016616:1518988
25807867:XxSoulxXjj
23307249:recurrr
28749318:LillaJohan
7361818:Doomadius
88038982:Firaga1111
86398184:04_JB
14962229:hampterlover2001
50817085:alandry
21666586:St1bnite
72445685:RLJammy
65034277:F10rzx
22880709:epikpython
77224322:dericbr
59458534:Zokrilron
26155457:VGameMaster0
76794737:EternallyKeon
87036653:Winters_Snow
43068978:Wonuf
76577634:DrTangerine
39722276:BlazingLenny
79754911:Nicoliie
74142470:gabbiyo8
47342439:coolcop123123
38740333:38740333
82943000:gardennostic
18143129:ExcisionDonuts
60516681:TheHiddenAquarius
65463086:bratzknot
19124740:funnyray22
66337865:vCynicism
68838374:marctecson
40384624:KingWizard37
37641029:explodingkick
8335004:kig283
519769:Botline
38190006:shane74482
25641653:Reset8757533
14983005:14983005
48387162:shadow00998221
63745553:iiShmelly
8243131:Dvl67
73658803:skyspiritza
4183141:dslife19
27621049:hihiwoot
76414073:odymaster123
14295962:isfis1234567890
44965267:jacoble3315
78981657:Brodyjh0111
82217000:Viniciusandradedutra
1245886:HylianLegend
84634883:JMCsegpa
52792594:Silvervfox6868
67001560:Hannahx_x
73990617:Y4x0R
2713924:Kuroxas
35279827:Fall3n_ngel
65353736:Novagalaxykip
4376639:mycatspot
34315337:Ethan316xb
36973354:Ziccywonder
8189352:stormangel196
29654669:bechena
18626171:Thomasc04
30377061:Kylartz
31496027:Lil_Fishyyyy
73256139:B00TLEG
54135886:B1ackbrry
62281775:Honeyscoop56
65034533:joe0420
59714538:blueskull82
17502597:Yhivi
16684710:Papaluty
62829177:Luchrihana_Nirata
8163289:AdmiralWho
37091942:Mikki_boi
39537573:AnonymousTrickster
58730313:Ieilz
17520570:Togo36
21836465:XevInfernos
53778549:baconrules2003
57597591:TheTessyBaer
4276094:4276094
64488604:electrocvted
53567585:Kyzsu
87430802:jpekvx
43823807:pc82
69057433:Stampy1016
28709641:Iryadus20
45028961:jsong2013
47298687:wafflehouseyum123
83610302:CrimsonKai
45619101:wowdcfvh
80684277:natonator63
81326114:XxjeterxXr
52045127:wakabaalbum
34724764:cochipfoose
22336852:SereneDestruction
25995465:OhLookItz_Jessie
8131887:nickspersona
28458137:dudethingme
40495196:doohikee1234
6887829:DarkEliminator99
32053148:EternallyAdmirable
22718833:iamnothyper
64371226:fadirahman
9793969:Techno_Taco
22943809:fyzu
34553091:angegun
8391554:snipersbest365
21034214:witheredwretch
36166115:jaidyn9000
63515887:Henrique6amerBR
11366404:jessy246
62461260:chefdylanchamp16
39677122:guilherme500
37785488:roulette_s
25632083:ProSkater5ive
6735205:sweet1914
6818630:Imaginaryguy
46268685:PokemonMaster666111
43300153:PreceptOfDeath
65095215:NeonW4ve
76045566:AlriqhtAmber
82498697:TheGoodNarrator
44671372:AdamAnt118
21244532:SimplyAchieve
75870093:Megumin_xXx
36550510:Xerayt
67938514:GeorgeFashington
74738691:Pensive_png
32348888:homeinboy
15949488:radical_robin
7005254:xVOIDS
79073494:Sc3rtus
55758466:borderlands90
19107265:Utsukushi
26286830:hetebro
86224741:PowerDoughnut78
1075774:Yumpiiz
45963511:45963511
34287974:22Cato22
30593995:InfamousKittyCat
86059144:icehowto
65051302:TheRabbitOnTheMoon
76746147:unclehasnohair99
8844397:dcc00
51885929:BuggedComputer
30562294:Cryotronics
24721594:lisora
20207247:masandrew
44986885:dumplinkk
39476735:Enderdragon24
69911030:ImNotInOppz
25137431:Dashie999
77124198:RoleInThe183
76049362:Ulises737
30469351:hungergamesfun100
1224972:Seokjin
35614158:luna20012
22320717:bun_w
31858484:spritesight
68887546:FredTMB
70258271:ImaBudder14
38329496:Majikozino
49853155:treycuteguylove
40468658:Pxppies
17593039:gamesgames44
42171205:HakuEdits
50874832:MegaBlaziken4Eva
84418261:ksnsjsims
37272994:flaregon10
34132235:cowfuz
86163584:floaten
45952288:jason1737
51164797:SugarloafDev
35920:Dionde
25739667:Epic867835
23835594:lolgirl5459
52224395:kovu363
82822424:82822424
480135:480135
58303893:Gashhyy
73255164:mmchocolate2005
41966962:PoweringRepression
22458458:CooIJerome
46120802:WorldwideTravelerCap
70451800:Akarin00
46346069:Valeriaa
56163599:Muztachio
75810394:Enderfire061
8262235:mucky2bob
52828519:xcatness00x
75531530:MaxNotMaxi3
69505184:Jetotally
75958067:Iessoul
17535199:Jawfoot
59675561:zacharychi02
53132171:Sillacone
31221861:MxMorriMox
60521242:alex0237
79275612:Electricman82006
14280857:Princess561
63229960:DeathIsToAll
66801774:parkerpiggy227
63374580:squidnuget88
7875946:Spillmen
8364480:growfoxmen
34305186:34305186
48191801:AbyssSteps
78201138:SceneMiko
39775780:KaylaDaQueen
83619964:kevintrgg
28922756:arys8
46115766:tolim
30044962:nickvaIentlne
63140394:nethinh
18195847:Kaield0s
43877537:TheRockSmasher_TM
40996054:Empressfall
88337023:Cynuxious
68604771:Fridgus_Master
37180808:ImAsixn
49475293:MOZ0RA
49188099:ArthurKirad
45234339:EggSoder
57956387:RobloxIsComing
45680872:Garanor
15305685:Puerilis
60531826:ArdynRhys
83182629:L0L_Bot
19891257:sofunnylol
47879865:Pankake_Queen
43006993:sagevirtue
52202168:iHamz
38525281:HuelessNeko
4856346:kiniw
66794634:ssoftr
57098379:ClumsyLoli
58376310:dropdeadacelyn
40146658:herokaj
72099757:dizzycat11
64261894:BIadeeClty
26673418:JimboDesu
50329357:Saxannah
36543339:ChocolateCupcakess
17809546:LiveLoveLaughSmile
34220406:34220406
76700994:angrygreenpanda
42556975:iTurdlez
48467192:MihCantRoleplay
21602116:Pwnzer94
17638241:Selbasaur
17183024:Silency
74441266:xLacunaDreams
17430963:farthead2001
70122859:EthanMcAuliffe
41579178:titouge
161097:Jallar
20393548:roland566
50982600:MidnightLime
46163350:desireeandmylin
46213890:cmjkbb
87650854:Racheltheoptimist
28837574:aprilchillyswamp
27088618:vlistcharter22
30250674:wantingshadow1092
17112463:Yhina
65974790:olai6
54160174:luigiinferno
17460963:720Logan
15101378:louieball
1636196:Varia
13224638:Dragosh0
56281139:lvigniero
22884265:EpicBossness
51503742:AdamTitanCaster
43900203:dude8354
6464206:asboehme
26296081:ContagiousNeko
81879129:LuxYz911
7103517:hhttll1009709350
75877172:xialter
40612309:kvtthroat
14123841:lani2113789
33267451:comya
28522872:Katiza
61772006:planeman676
84163007:MasterChirica
9917063:Alazrus
78085017:Sp1cern1nja
69901694:Small_Ghost
81469968:dede0302
50284786:sillybanana92
70158019:Siariusly
16839651:ErraticJoshua2
34883183:r8009
42467700:MarbleSushi
82212307:JunyAHP
87424722:Moxi_Minecraft
49365215:ArkoSaniux
37801800:8BitColours
28893105:Miyuchi
34986019:Sxper_Cool
37041042:Umbre_x
47824858:summerichi
59106604:LordEthic
31890542:Kyuro
73981852:sanpei9000
74240814:DangerSilento
42091004:anthony200456789101
15439363:Noahhaha
65927523:Niiru_Kiryu
30621307:starrcrown
51828244:jordanleean
22419365:Rodtodon
39055225:MScout97
2151832:GambolFaunus
82827819:t1konim
13318866:ashman74
77582602:poophunter103
62692372:Kittehh102
48047560:Aisling_Real
35511805:methaphone
62922659:un_brokxn
78688758:InTheirPants
3967833:NOD45
30790603:blainesuperdude
53096610:Hessians
36226634:118118enderman
58343844:SacredSushi
87857898:Yuri_Sonnn
62339495:Xenon_9555
66907693:mannaurs
61445934:59silk
41918421:tteennss
361591:CuddIeClouds
78476929:ProjectXpapu
72828136:lin_incorp
42470565:caleb26107
45791895:greatestkid11
56817381:2419psyg
42550737:88pizza88
56079792:hypnoticlolla
35573684:Krakorn
63067327:ziyao1234
82038392:moku_mocha
13522390:Realizable
24663061:24663061
25335934:ScarletZinnia
60431035:ScarIetWitch
8264659:Necrila
13377248:JerryPotter
83727518:exot_c
26168294:blue52502
43006050:ProfessorPillows
33938137:Mjaylacoolx
13987532:01dannie01
45274094:TrueMU125
58772768:My_Arrakis
292388:flamexer
33273697:TimeLordXavier
86593233:m4vhu
1173637:Draeren
50179369:Docpoptart
41302400:CRAFTER2468
60989915:hannasolo
45294192:softIyy
20110315:Vball_King
71269444:ItsumiValentine
68723646:AstralHorizon
81476933:xXBrunoXx123
46377735:Kylooping
64363817:LOLPEDITO
58588214:DatDerpGuy
42287768:iiKivaKiba
729829:sxrfzz
5509823:lord1466
78232271:kv73
56295245:TribalTrickster
11274416:ShardStudio
7502790:Reinheart_Willhelm
10344400:KeroXyth
868099:kenny11111112
81810167:FinestBus51
41545225:CastCrown99
60056056:rz320
31214257:MaliciousDream
27402123:Siblax
1259657:Jusou_mi
38788627:AbysswalkerDrako
80595878:legobuilder66665
66608019:outlawmike123
67817106:LeAntihero
8976:MrKiller
44607401:zolokor100
67329596:XxBrandon900Xx
63488814:totaljoudi
53174939:FatefulStars
65312910:xXSpellCasterXx
39247397:droppedmykey
17235307:Small_Inventory
3512179:Solitaire_Tagaki
13220297:nheow
41075749:TT333332
1684977:weedthet
29007664:Honeyvous
39372139:tycho55
81826612:INeedABloodyMint
44679246:44679246
31197404:GrandpaGobies
80794647:Namashizu
49751744:PumpkinGhoul
80083149:MELONSHARK
80616312:zk21
2869060:Despuro
31715871:NerfW0rm
6736470:devmac98
46317853:BuilderLord101
5771:chiIIness
86326998:YanalisBOSS12
47853866:MariMusashi
88433958:Nabeel01
66694050:yutaidx
3509781:Shaymin132
66098049:A_SimpleDay
41901796:1bed2banana
80031116:Jjdagreat_23
64925110:slophead265
52248610:tiktok7
87984714:Lemon12312465
13424258:Hyouri
59011050:Alpa01
36677835:Unuzuzu
33100540:giantMonste12345
35868504:Ellebora
18982229:Scarious
82618623:AnomalyRBX
51138840:Myolic
39850260:CandyCanvas
42172295:42172295
62617514:AnarchyOfAngels
55651546:k0na
57597439:ggfidge
34009964:bluestar821
64915556:TYROMEXD2
9885943:DEADLYCHEESE25
72136631:nolo249420
70753244:Multinervous
8607572:lozipopzy15
41964648:puppieluva23
22646398:PkHeart
36352281:TheRogueReaper
31071916:Soliderie
79276103:Shinjinbukai
10639971:marcustheking
53014867:indicaviolet
73154998:Zzylis
48061638:SkyHighBlox
37432265:FoggyRavens
10252362:GhoaSmol
30761879:killer0frost
85993707:datJaz21
68134310:Hallogami
24983307:Axiom807
9219040:InfiniteCookies
79044567:Machiboss
7388139:Sravl
19376572:gamergirl_vodkice
57326401:NoobieMcnoobnoobs
48150152:Dakugadian
3044466:flygon566
52716703:Gaelito7
77673955:rarezpeoplezs
45307782:agentfros123t
78854534:enderaqil
17563274:TheBigUwU
84908891:Hancxjianghui
57854023:tyyoutubeman12
36608564:sparkels17
23313257:04kran
35685333:Joey370
24050060:Exceed_Omega
55289591:LostInTheFuture
32467146:Tabby_Cxt
38716801:xbkill10
66774884:potatopixel
21702587:michaelwaterson
7132381:KyuteChan
50067351:Cincea
17729463:NineTooth
53309131:aquaticdragondude
62177375:kioniks
37844987:MajorManiac1
51739716:Free_Br1cks
59658155:marvincraft
30145610:Froggywave
4297931:cranberryguzzler
57340118:ChisomoXT
22381532:mirecek0010
59389836:iiOsomatsu
50717874:neoncathedral
84430349:SmugAce
64407261:Fruitshake123
60007341:sxruei
37142345:sauzan29
1315736:ravenmow73
65432039:MayaNP
39224368:EPICRANGE7
55269867:bahar5566
17591274:Random02
69562715:Zulth
15924883:Ani_mu
63843510:Harmony0801
562965:NoBootDevice
55310337:FantasyFigment
50040383:call77t
24693512:gottalovecheese
31391017:Calebe123
6075323:Netrift
44016486:LOLkicker
61590917:veskarie
58012378:Vertives
1950823:hockey1423
85020343:muhin81
3786155:CatalinaTitanite
71879646:ThiagoBanana
34566653:Meepimoop
14357881:VioletTigerH1
82601196:xhilarant
67169373:Torxst
52961353:Kruptikos
7783143:orrkon
78461908:the1whoShrugs
196059:Kirby7678
87717684:EcocideSuite
25024002:25024002
81996975:Victoryr
80669546:qisso123
46715020:Bioearth
37653726:databyte
6937497:10ryuu
34538086:Aoshy
37541219:FlaredPheonix
48675565:Akame_Chan
68933698:Zinkman55
66429887:sidperez54
38770086:Xylphics
56560249:Sepp_Aegis
82244738:bananadude620
79269572:goodalberto123
44875384:xCauan
46331347:armonokeowo
49703177:Origami108
73183872:73183872
71082464:Ziiny
76657835:NUMBER1CAPTAINQUEEN
72691346:antoniaayala
62489926:PortabeIIo
53962415:max1wow1
51561408:51561408
28447619:PandaqWolv
742310:dylan369
64189627:wawalettle
45447528:SnormanIol
87264061:XxMlgGamer1920Xx
21888644:xxVinegar
45932474:Cultured_Guy
33867804:2BaNeZ
54390143:BiologyTextbook
76785434:Guestkillerdude
30576979:colddramen
65412267:Lazuli18
34145630:ZeusBelle
44485292:middleclick
49122352:jaws4329
81864810:kendalahs
56374653:EverlastingDragon
82916703:Gr_mmy
42955261:Soulkun8
3365494:tink23
46705254:sharkboy3142
48756837:ZohnEX
18536001:saito90
74749034:ChanemKallis13
64327723:lolopman
82468441:Pochinut
1765962:Thor8
10655716:auxezia
5095394:ultraray619a
71243370:Brengamer
70478604:gl0h
70669948:p6ser
60836294:goldenhill12345
931318:Arathuir
65361644:epicmario2000
72613658:Sidees
32253477:UltraBloxxerX
49035295:jake23557
32508221:bloodvane012
45329021:aqqc
84529271:Nihonium2579
83252996:ihZelda
78129285:comethehour
591147:cutie1241
53014348:Thermometers
64705826:natsuuzamaki1122
72542877:EnderDiamond79
26015909:LunerTranquility
37843800:SadElephants
34813943:ElCaballoTrojano
69965:Robopenguin
85778144:WizardMegumin
43629731:CH0UHA
39283301:w_ojtr
68263486:ShortKelvin
32940761:kobimarr
60670469:pikachu1494
66337938:Tylervp
19799432:MassiveMarioLuigi700
21996380:deadsniperguy
88360505:InternalHeck
305536:Daris
36592747:Picklus_O
45145778:knightnoah
43875809:MatrixBloxxer
39116009:AliceMikuu
81203459:PainPrime_EX
23667457:Kitastrophae
77824523:AceyJelly
18243785:mario7432
33835394:timea1234
14877213:Andreai
1199745:wonderxray
78694284:xiuminzy
84703569:NoobusTheGreatest
35599123:ShoGo112
41216779:ChillJustIndy
41691654:GOKSTAD123
38030230:Wizardlordrex
21852891:kienconnet
79926803:Rexelity
44304291:demisity
39463656:Oodachi
13845261:CANDY9000
85666778:ignivy
51055281:El_Posho
33940158:Alacricity
40571856:dreamshatter
79395756:vWoIfy
73466034:XOYummiliciousXO
58335716:Zeebeezs
50827487:Pinkpony9533
83909856:Arkuron
20970430:creepcall
69622006:ilyLupis
84062776:LordHeydrich
55263548:shawn200054
44442422:0ceanPlum
40079440:JustDaniii
66045265:PlayGamerr
76011508:ImBrightIy
39018838:MilkThreeSugars
46443662:Triplezu
7051604:Funker_Vogt
368431:pseudoRobit
24644092:Yoikura
32630686:DrSpirit
65126306:Vurtical
10600792:sparks9000000000
51841084:onlymage987
13990160:spookycats12
55712492:RobloxTechTips
72680299:Ziqlos
87262305:Merliaco
37822458:pIasthetic
43647322:Arsxne
79591607:DemZeri
69852:polly
33941115:deathlizard10
51979948:pengeylover
83651724:vNaraku
42841677:oliehaku3
60342839:MeloTheJelloTheFirst
20933282:coledbz
37218621:skullflame1234
48616197:apple933
81117353:Only_Volt
26066232:oohlisa
15458416:Bagelking9000
17012064:AlphaXeno
35077961:heyheywill2
58325677:MadeCrafted
625996:ReverseBackwards
21376795:1r54321
16569269:sruval7
73036332:Housterz
24703304:lilfunboy2002
36401403:36401403
79586883:BenevolentFox
52646436:ILoveYou3000s
9589830:heroman25
5103612:drex1234
70160388:Im_TophBeifong
16715299:markdx
4302015:Square_Raccoon
50266527:nitrogenjutsu
56390407:ExplosiveToast123
62983322:bozzmaster
51716996:nascarlad
54146628:TacoMaster369
39154757:Jupitez
30518234:gnarlydude667
18629787:Troki
59841428:leelee002
51243330:BloxyBloxingBloxer
15391786:Echizan
30614612:IB3N1
81937169:manbatata
75466189:topxdz
40237493:DSiPoints
50173895:eliasbdeo
42799107:Vaaaads
20930199:Kumapiku
13312588:doomtower
18152985:ColeMochi
42481848:Stealthcreeper04
82480940:LordSalti
26716802:Riarsi
56044665:toby2084
3800635:MayhemK
16169358:bezerker948
48285005:Opalactic
8533218:cbcgf
7571919:amyboo
16501290:Arianadey123
63645545:Vyurdian
37280658:amalina0837
38819993:Skyrmis
40616723:SKwishyDide
76536659:auroradragon123
33452283:GavlanWheelAndDeal
17546483:dizzypokemon8
27910319:Lilylian123
5837881:SherlockDC
39704313:GeorgeCallio
11103443:Osirision
42523648:TimeForAllTrades
29814376:systematicaddict
47522317:wozmann
79207482:Abyss_Party
65712:Wizzardo99
76576236:KazumaDe_su
57147725:webbeywabal
55383731:godzilla0720
43066047:IIMuseII
21480076:Zhao_Tai
77468486:77468486
59573494:gaverone
55395454:RileyD848
63407897:Jadekisu
39916616:RangerBCK
58030624:BENPIG165
88364151:unicornrobotrocket
85020667:ChaosMelody
30717842:katrtamatr
77055019:Meeks_47
88458636:Reclysm
74164581:budderpokemon4321
4199791:AlexanderMortemGCW
40108710:steve98746
50246639:xKazuoWolf
24559419:Pakakes12
15743159:mattymatt508
50116628:LorddDucky
58069273:drizzydr6ke
4431710:Excitantia
79144241:osher06
7020663:M0RGOTH
52892627:Nidabro
42725786:Pokeaidan123
87438853:TotallyNotNay
51882528:XxgoldendarwinxX
24066564:lethaIjilly
71028578:Otaku_Rick
31415329:Warukaru
52059159:Seki2006
64017194:Girandata
53704880:turkeyleg2007
84505150:Uniquicion
8839054:WealthyDanielle7
80640302:con2234
36708576:NewbyCakes
538537:SakuTsuki
43444408:1Jazzygirl5
47304479:colrog15
10596711:PYRIT0HEDRA
84038781:xAesthxtical
83026721:mowfoydatigger
24277943:puffyandy123
61303958:batban12343
41380674:ubercheeks
68007722:Arguably_Stupid
81734026:81734026
53419941:53419941
67153433:BTF4ESP
52188376:robloxtheodor1234
56412386:Isaiahmine1
47065329:victorplazmaburst
10364503:jackee500
50550812:Atorist
9537856:Tirston
426887:amcmca
39276630:doremn
38536166:D_Mera
62541343:mattstevens1
83746358:YBPhoenix
66723605:PerfectPaul77
87441452:Oyakataa
22475313:bananaking730
49892440:nafyboy
68004843:HELFLIP
6770974:kipola
87416897:87416897
76692337:Tie_D1e
52396639:RoseSoul22
1664572:kkicckk
36003776:Sylvesp
70380106:wisedragon54321
57169408:Gameryves3
40807122:xPeqeri
6879953:pawlilies
60170156:halotrooper101
36233583:lrb150
69594676:rafcrafts
12420982:Hydrifixation
2001453:Sulphuri
50995724:50995724
55332618:pcwest
65253739:Bruh_iitsJuliian
10568936:cashinhunnits
32221239:1m_K1ersten
8061567:octimusprime001
87430445:Vermillion_Monarch
75865467:nishinoya_senpai
45544736:rjmario219
33590606:naru22king
62406454:achantheman
45731253:45731253
4104263:BreezeBlown
13700359:upbeat0
64882736:Entity_Dreamer
24131623:Akarimatsu
64237590:0Pixel0
35077333:heimerdiger12
14878413:Kreink
54042710:DotDot8ight
59587425:SHARPDIVERSHOOTS
63065227:patrikim
10415386:whimsycel
36257015:rhomiji
77352086:123ooyy
85274911:MrsCappuccinoBear
43381488:ROBLOXSBestSwords
84098241:AxstroFD
39301015:skullmasterfra7
53106870:benboy1019
65766906:jumpshot2025
59790380:minetime43
87913440:linetagger
40183746:shisouhan
1177641:Otuoto
47846579:articbatman12345
14219511:IshySlushy
3256634:roblox_user_3256634
20830126:NutsiEve
51995519:SinisterTenebris
88114368:MineCraftgirl1962
41932088:Halcyon_H
571349:dryboneswii
20512279:uSarah
24651997:emisaraccoonfan
33216849:saywaaat
45582540:jeremyjars
61919065:Noel_Invidia
427456:gameandwatch
35485786:Akairu
45361954:mineitout77
31700437:lightsraw111
3429925:RoyFrank
87096961:MahdSaid
82136298:sn4k3bitez
25102625:Pax_Requiem
37874328:DumbisWE
33945773:BAS1CALLYD3AD
87773830:Zapalapa
61210137:swordofjustice7
75018168:Smuliis
8997517:de_streza
86714955:xJxlly
84832680:CaptainDarkMagic123
49815473:Valtrem
37156896:DubbleTehBubblez
55204516:ulyth3ss
34811636:Trywarmbob
34466798:sethetheridge
51179368:oztavian
18152808:ChiefTempest
52796650:Te_pes
38663982:alaska10
58027997:timbletot
50027186:Rockroy25
32348280:jarlathgold
45503764:WilliamBrooke
74461339:XxFireworkxX123
30435749:ryrykobayashi
87040805:WishDarkness
76989445:NarwhalSkins
59267105:CHOCHO668
34043953:ae1you
50407868:ambergirl986
32947381:ZorlankTheZesty
63012309:justinkase
20539983:KarmaStar173
21522194:exoticmind
34722579:x_Ka1e
63075685:JurrasicParker
13286610:NorthernFrost
24183236:Conner93
88173881:Aspherna
18353846:N0XTURNA
24165830:kikicj7
71380983:Awesomazingly
40255120:Azurikai
86695659:clonnynixgames
11859250:SecondLogic
53447903:vyjq
58409642:Faavela101
20041676:statonx
41779615:D4ngl3d
10524358:merlinsboots
53992821:KeeganZombie
79584640:Cody_Seasons
65231597:BlanKsx
80057631:pixelprobably
9466707:raymondvic
17977833:LeafySharkz
51503479:51503479
45102497:Xesterioo
45052087:ninjajoseph010
18426768:soccerjexd2
39500791:UltimateTrade
41040273:thekillerbro658
65030614:CrownGirl528
35303127:chinsack
82828989:ViIdred
6605480:Uproared
18537933:4grade11
30574810:Vipiri
28955524:28955524
42128909:XaItos
58974601:fIowhr
21792922:dxnt
58732742:RedSw4n
14536804:allen555222
61351037:copter2547ggg
17593445:absentmatty08
81613012:81613012
61284516:dookiegirl55
11684772:11684772
29539412:NewtRoot
85799173:BlueKltten
88451496:dadepro
4888332:Tsuitenai
852234:Kezhiu
62507115:gleb0
47129317:ironmantt
80615256:cyriusisballin
44436633:mariomon54594
74710261:hatmaster1204
55127987:maximusus
52492227:StargateOne
771320:spencer588
51691437:qloomx
18754991:UsagiLolipop
71257816:HarperNexus
62379521:fruityibuki7
55069718:laeth70035
48974099:WaterBucket1432
81992917:oganerol99
40382366:ViridiusGreene
77036526:Exivve
68426930:AlexR4000
36369003:litemcjosh
64088019:iLikeWifiToo
52315782:neropilled
82143142:luckycamden2011
38723207:DogeMuchBrah123
56936064:astralRemarks
87646046:ApoleiTheGatekeeper
5952561:Kalieaa
41591879:Lunaetz
58971301:rustMotherboard
17291614:bef2
31897707:Vuxle
43463646:purr576
33104848:Jim14789
57221546:hu5p
48805260:AncientGunnerWarrior
28505228:Pumatheon
61494085:BloodHavester
9770706:Curosity
23307306:BurticusAstro
37714530:charred_ember
13460290:zenga6
74339953:carmilynnn
60865084:Naktariii
28953721:IIOIOIIOIO
59238275:Hamza466
82051890:Sinister_Hydra
23061911:salmontail
26492370:Vertyq
55506342:locallysourced
70925646:YukinonZenix
7131894:FoxupBoreasCorinthos
3500441:VeteranToaster
74716962:Lupirex
537682:45caliber
54263863:machinePixie
18334520:bunniesarecool
51983157:HPLoverN
87522000:SebastianLavers
52839751:simoru
87073086:TH1S151T
58557165:KawaiGrowlithe
87691557:VoidJet
7796770:Masuzu
50809555:kurozas
27601740:loki224
5859800:2OO
22065750:OurDestinyXo
61416248:stormTHEwolf12120
5827530:Aetherlane0
39177816:Tomatoe_s
55697026:Yuki_Koizumi
60265635:yourdarksoule
38171637:umadbroumad123
51924865:Koh1019
20943419:sillyboots
28747979:crmsnkng
77188794:dejectedsnow418
75941161:EnigIVIa
39261426:nanny0208
22511492:Noobiast
70444169:HolosDragonMaid
3270800:SanikkuTheReaper
36302163:Lamella
40319428:turbotimeguy
73496618:73496618
68873181:Zamsius
3730389:Ai_Lek
29560992:ForgottenDoyle
83605581:gatoluz123
3444832:Dragonslairer
36015120:Asuryan
16192971:Alan_Bates
