3601027:dilga101
5352718:Hellson2468
2819307:nordude
3521549:gerbil28
7987164:MrAmazingness
1631664:ljsm
25659879:DreadfulDerpface
10210983:Purespms
15105305:officialowner
5385394:jacknewton23
297079:billybobjoe1997
20996828:badkillerdarkwolves
6897446:Victorman101
4903021:football11111
554401:cpr25
2190508:joe2565
438133:mewtwomewmewtwo
14223633:ultraman522
956673:Yiami13
10072248:pokemonman828
10451222:BryanMadrix
3667800:fenrirtwo
3019823:DAYBOYS
892251:robo625
19726612:lordhugo
15036012:15036012
6045338:spy159
9714911:Davisy
173093:sumdude
15231751:noblerex6
4957658:max2501
5559152:freddie8466
9654283:5pm
776071:adwerto
8543349:sturg
13310396:WeeJumper
46096417:sk8rboybday
6598896:daviday
4049626:jumbocar
4047952:XRhinoz
5503396:Blashe443
4268462:NotAbcpwned
4793956:Tikifire
5633460:hyfp
13473377:poseidon6maxwell6
6537660:themistman
34126:ploober33
108194:Roblox1234567
1624549:mojo46666666
3602422:killerganster
3854764:lol1009
299229:Demonlord899
4952115:Adams141
3730170:Optimus873
4662815:Brendanbla2
25994515:TheBlackRhinoceros
660599:Masteryoda10
6033522:bobby9973
6989423:OKCTHUNDER
6177210:domosensei0
17790329:ladysman1231
23081843:Sonarxc
6034530:buttface35
161053:corvette4968
13696048:alienblob
1944857:bobeater345
745848:745848
6646623:koletheroblox
3476034:dungball64
3004362:Dawg1842
24954015:dawsonbloxx02
5952188:alereu
3857709:Max082397
3600168:DarkWolf93
4399837:moners
11811762:kingdomhearts123456
1841423:marcelo1563
4772337:joshibirdy37
813292:JP2000
2845387:elephantpat
2952761:PO7890
5823240:murry98
459499:belfis
7059354:chinesedude22
14044430:tymber1234
5007259:wekillall
4626910:Boxbot444
2301667:rosie80000
98764:wattawat989
5917844:TheUnholyNomad
8587406:fastandfast
3920940:darwin3788
19439189:DrAwsomeMonkey
1180796:jjthelion
209161:coolmike1100
3393611:THEAVENGER119
3484561:Mew15
9795306:Victoria2311
15764613:maximanturbo
5887501:BigAir88
2447443:Brand22023
7074841:Ship086
1549688:TapirPig
11739703:marney536
17312461:Naleek
1042720:Jokki
5241839:SM65Bear
912369:md1o1
104498:bobbahbee
424674:dallis
41070872:RonNgeloo30
9465489:badermole
4120248:loony2033
10450782:J0hnMandrake
303479:wii2000
14420630:WackyRex534
1516870:dragonsaurus1546
23948596:rhinomaster1
4726646:aak7979
2192124:ROBEY2001
3453694:ajt09
3674334:battledroid100
3412474:charx223
8266713:SETup911
11530392:robloxbob1
16274215:W00FER
2029241:El_Blizzy
86538:TomCheesy
8574408:inceptance
345896:soloman139
32278729:VanillaAssasin
3829572:HomerSimpson888
3768990:sillymonster2009
3882148:lloydfish666
17416981:AceMarksmen
21377007:jfrog137
3745382:rocklegendz
4028458:telamonelemental10
498881:hunterdude234
4302007:jeremybennett72
4807117:lilwayne7962
3017866:Jabethemaster
5887062:nicnac81
3274587:Navino
4489737:Merely_Moose
472689:pigs321
1370046:111111111ty
1087242:Logan_Sr
2942495:scrappydoodle
25106579:PriestOfPeril
24529543:doberman323
969794:wellop
4026370:coolandrew890
1210112:ranger444
