33132728:XxMadMonkeyManxX
1166129:CurtisVL
2856353:jo2k6
23170118:bobman3456
14693216:TheKJWINNERS
13714720:coolyoshipower
34017001:DetectiveBran
32265769:funevbre
2249055:Defense1111
45007348:Penguarian
18774073:EnimaShower
73308056:JinxedTreasure
34235912:TheTrueWeird
13781455:Brutal140
53330288:Scaramangar
42190836:Threemotions
15090454:skelo0
62209593:supermrlbrosxd
1387712:Aldar
39831016:alliancer
87269214:The_Fazur
52871060:XvR0
37940093:SpliTech
37460129:MrUniqueOblivion
47426:LiquidSnakesArm
5368051:Dilecti
69293582:henleyfarty
37426417:UnagiSauce
443009:Tkdriverx
30904097:MrCaptianvet
32376738:Key_Blade
41084963:PvpLogger14
10499017:Kitteh6660
21880679:MelanMaelstrom
79943835:txchlol
7278328:theBrandify
77906996:lenahhx04
52175689:roblox_user_52175689
42859726:jimbobfred17
44984651:RobloxPC9L
36207828:1cooldude34
20535351:MiloSelfEsteem
17802818:dotty4499
2540214:NathanVenture
16102763:DailyValue
8285911:Aikio
999193:Airal123
13355336:EvaIyn
13245381:Taletal0n
84985833:Sebastian690000
2341931:Pvemzo
36083872:Ttv_Kester
6954343:CoolJohnnyboy
5380774:KnightOfTheFrog
15196002:Gray75
68341976:Tgpyt21
568187:Lennypoco
31650374:Spyblox007
48017023:Zievo
58840565:32020DJ
40508886:ReallyExpensive
52063067:TheGoldenEquinox
53041294:Undead_Commander
21273537:xDoubleCoNx
79954654:AlphaUnity
85581818:Foot_Paws
14543152:14543152
17999510:Lord_Rassilon
2878685:nsgmaxy
10417045:dodger12345
44058724:adev03
59590621:NatoGenesis
87356964:Andwn
22452008:loganawesomedude
38114703:D0G3ZZZ
1321707:BobaFett16
4659954:Gameplayer1500
29373162:166k
44703146:SeniorTacos123
17512812:nikomon
55295733:Jawntys
34050422:HayCreator
17331768:17331768
23684679:L3Z
34013:Mixmasta3000
158254:Above_Chaos
9585147:Toontownlover0406
2392976:Jason9503
2060989:TonyViscera
61920320:Doubtwalker
13740710:bolletgun
87042420:urs1nus
32126600:Wiimote24
19038266:InspectElementing
91244:Maria1560
50037852:xOmqLlamacornz
53156798:Brendonian101
9640999:DraconisSolutus
25374852:DoYouOneNaSit
25884915:TINYKAY777
18690565:gurfsmurf
17862592:IT_Anthony278
49044424:Federal_Justice
44682798:S4LTY_PR1NGL3S
7310823:greatblueface3
74913601:ChaoticAssassin8
86532803:8igeater
17450246:yatsumido
7566068:Drag0nFruit
6578698:da_KEET
31140042:noxyroblox4
21009928:superalp1111
5683419:TexasAces13
1618830:JustJoshingYa
3391441:clone0136
10340403:DiabeticHookie
904107:shadowspeed
22332467:diamondminer36
68860143:K1r1same_Marisa
4399283:RUBZTER300
5021669:5021669
22764296:B0B_SAG3T
9555223:ZQFMGB12
2129545:papi2009
87418169:87418169
13565457:brianndjojom
36570067:SharkZord54321
52074261:TheReal0din
30038448:PaperBallooons
18485577:xxxxxwxxxxxxxxxxx
14944986:georhan369uru
16078647:Hei_Days
17788246:pocco1234567
79978968:Yipperbro
54207355:CaptainRusty5
362438:stepstools
979457:zacy21
44209820:techlevel80
31881218:Suh_snow
1958434:jt93
10308235:EmeraldDragonDude
70042671:CreepyComics
56110525:SeansMachines
7007002:huigh
1623038:1623038
16510016:SanityMan
17291687:WhosRAGER
13812:JustRaisins
87440163:TheGamingDinosaurz
53017915:SweetHiddenLove
17865167:DanielWithAManual
20979965:Justinicebox
79502411:Devinsplay
22224037:Drekexz
58785668:Games4Ever1
13829840:xFalloutTactics
3456149:tai922
10749712:kevini44
38205463:Lucky_Critter
26286135:ZillaFlameThrower8
10455933:DoctorScrubbington
113474:Danx130
72107576:RedIceFall
24853486:VoicelessMark
2976358:coolman67829
9417499:uglycar
46247563:thedoctor1342
60942717:daydimod
14808677:khaled987
23237303:MadJack9000
4818976:D4rkly
34004180:prebacks
32895208:RyoshiSenju
691019:SaintsBlood
30129586:djs110
13673649:EdonSolo
15718038:griffithterry
19694424:TinCan958
6572605:Hotsk8r4life
39872933:mibtag
2843223:w0bEk
30643124:noxyroblox2
433349:matt1020304050
20249940:LOT61
36905566:r_zors
48912511:robbywow100
16267104:dommyshimoda
41575615:HiddenGem
80109006:thehungrydod
40372686:SilverSilo
22876056:CaptainKatnip
525919:AxisAngle
33520385:xIceDogex
84343575:Wishbrxh
77885299:G_Puggles
1494519:Solidsnake43
25999580:Ianskyehero2
28383903:lazywizen
24438228:rocoonshcnoon
59720078:System1024
23169247:1NICK23
22396905:ApeBrainFrank
11071684:Rockbone11
63105987:AustinCanGame
34274000:Faded_Moon
9666290:MysteryMilo
16999836:Althias_Vistresian
59468862:busboy888
87196130:Exarkhos
88467824:KumoriKori
4621774:DCman1001
22612222:ShadowOfTheAbyss
22457795:officereso
28784778:likingwhatever55
27454266:boxed12313214e22132a
261:Shedletsky
2443438:GodAlert
44252074:luigifire777
69737983:jazzyanthony14
19994899:DemonicRubies
85217499:Loganxdxd
35201525:maxley2
18840239:SwordMan526
72455228:mrpizza12345678910
9854117:sharpblaze2
37513683:Saltu07
3998651:adi00
910344:Obbay2
30827624:xXDarkleafXx
61301181:Bman0503
34809426:SonicEpiz
20574821:crossbownick
53827473:Moonstrum
43111839:LowSnipez
27834227:bob123ak47
6974825:xFrimble
4034412:ultimatebot3000
14556194:C_Cola
6402798:IMPOSSABLANK
20370540:mustardfoot
63103594:NewYorkStateRoadgeek
6310284:Infiltrator525
61853641:legocard
6373775:eilertColes
58054639:Enderhunter0605
36326258:Squares_AreBetter
73535031:Jonahg77
1564071:brad107
19007378:Relvala
15862988:spo0nkid
46613145:nitro_ooo
50688425:Aenglecniht
9284842:BlizzTntad
5017950:Vulcanoz
23293518:POOPENGUIN
1862244:NABUSCODONO
33988580:Shabmind
6344711:Drakeworkes1
21035311:iDracius
48966919:cuzima_savage
196799:roblox_user_196799
33232944:hellochristopher
46894474:WONGUSMAN
7449968:Piggylingz
24648577:ChaosicalBeanary
17944849:Coredous
23848593:Jet_426
51611085:HarrylDev
8943699:choubidou13
6375870:DullOverlord
14017810:kamoojan
21498830:kittyawesomeness
10421743:SuperKirbylover
58543941:sloanman06
15053839:Quagma
18284239:GAXIFREEZE
50868476:mrmunchy88
11138259:TheMirrorGameCreator
34923509:Nexus_IV
16342485:speedster1205
322834:RBLXLucky
6564512:rey107
77259374:KingHastur
65888317:RedSawn
6064318:spyclub65
78132300:lugerfire44
