35065236:kieran0147
83326896:thefastdoctoriscoolq
50946119:ryanlz
85859307:tailspin20
84235477:SparkSign
65510085:65510085
16422464:ultramantaro
49506629:3NNARD5
19321356:uptightrobofinn
65867428:loganzpr
80184117:Flarezazel
73174668:Mr_Markstar
85157248:jinx950
13340555:lucas372
53732274:RocketRyanA
34669449:UwUAnime257
52038894:Reshikrom123
66336660:hemlock450
25524028:OhChino
87451865:KirilKiki
73554342:araiive1
3380485:shadowki
63392656:RalseifiedUnit
71833864:MarioColin05
15982796:Ninja_Yoshi14
56238117:Emi_Rainy
86880949:SkeIebutter
79107612:Itz_STRIKER1
13227811:captensmiley
55927243:stevvman
68713214:68713214
60442512:hotel37
47980134:ivanna221
44794136:spyro4555
37123117:IBRALI05
42364657:ticogarciad1
40740684:Bl_nkspots
2466786:Myrtime
76831809:Electron921
17211291:LeviTalion
73483164:DarkIngnosaur12
33637945:Costantly
59171986:TheBarrellLord
77494733:JakubixPL
69578475:Lyvimau
83114147:ManulMaxxer
68597532:Vo1dz012
81103188:JoudTheDude
60523069:fadedlill
7875946:Spillmen
52294985:robotmaster03
29728669:narutoelbruto
81610731:Weast_Tea
63793200:zombiekiller404404
31492173:Cambo2005
32671765:Mikk_42
77472614:greenboyav
37604491:420669
71643602:voidking42
2087178:Redeyesdragon
50150189:umbreon567
24930280:bravemax1423
73819818:KeithTheGamer12
36535847:Dlycan
15465181:hiimXD
16446415:stupidroblox200
66897751:Shakenchain23
87360906:Lamentluv
77949767:tailsmate
42549819:vsman76
23344070:emiliano7
21096278:ultrakanethekid
68147046:janek102
58599870:SilentStorm6160
80675523:FV0500
88465737:OrbaOrb
29134862:delta_zwq
20539983:KarmaStar173
72122972:sushiking99
48716965:10superlucas
60516921:sry132
70685776:thefiresowrd
38615640:noidmax
73366125:ooltrazooz
30147658:SteboBlox
68448718:ChaZBoo17
7459798:an2b
9540665:skyolr
36985375:supercoolman2312
65741292:Cubesgame12
46322627:Kumori_Ryoshi
16186757:maxtiman
81413354:supercoollordsid
71906479:ZephyrVeil
23295928:mrsuperangrybird
36510235:toxicboybro
34503728:eliasboss3
80143923:mythiixx
71181318:nyancat371
85579772:ShadowGrimGuy
74387388:pasca200
31905679:Sybil_Leporidae
15418743:servine123456
36463997:supersonicfan1985
82557986:broking111
46975119:Ezbot0098
43499886:redpenguin555
75744624:TychoDaRiolu
82175078:meitisera
2704972:Korst
75076235:emraldboy791
79755505:L04K
8118948:JordanB1
62952138:10472
7810667:Stickpaw
81598139:MayahWoo
48595757:katkat910
30136348:808dragon808
60977187:randomperson3764
37252347:linkofwood
73864208:foxy2245
1466699:jade_bnvvy
29142483:TheShadeyMerchant
78059166:docinhox
26133363:sonicworld456
86774808:TJ_5424
71526312:LOLman512
47877234:Doomslayer152
13916160:orangeuglybowser
19411690:Akuenka
25702426:25702426
51811297:Clairebaru
81338563:Ci0zi0
50516510:AuroraCNix
38239465:diomondsword11
29336639:simonron
73658761:khaueh
2296702:hallucinacxri
75469783:NoLoLkaBR
88462344:TanTheWonderDog
63551243:Jasperjacks102
82984435:asapton2
66399258:Antiveode
81872657:shannontheshark158
86201150:ziggyoreo101
15912853:Geeflakes
57456398:AkioYoshii
82468744:KrizDaWolf
86766622:frenesy_t
37776208:ItsJustKev11
50257591:50257591
87355948:EnderOfToday
31537471:higio123
71726624:GabrielTheAssasiner
55469078:CoeusRose
54288311:Iconsumestyrofoam
66484357:SqueaksTV
69993414:midoribnuy740
59370933:KeepNoobsRekt
60318787:lolduden
28883770:clay5cool
74740858:kairory
74973939:frostVoid101
81994641:gdho
53551671:DarkMagicianMahad
83629272:sebas8a04
41665285:ScaryMaze198
61026295:xXJustin4YouXx
28338998:YaBoiEmber115
35500981:chickachickaboo
40012731:ItsTempyy
84652263:PinkBluebirds577
52044431:dash7557
37575292:HelixHusky
72530332:twi24
77527262:77527262
9672808:GameBoyAdvance380
21216967:maricweegee
85917495:GurbtheWorm
21244490:TankDobmeier
26321130:rabidcooldude2004
21044556:21044556
27058779:IMSPECIAL456
86983451:jcb531
32576007:Defalogo
970319:UITableLayout
79431447:Derpy1260
25701152:prettyeire
88470342:FoxMaster87PR
41474546:NineKloud
38531887:mathi212
21634721:JollyRhys
50498762:maxultra42
86395896:longtime4321
69363413:LivelyHeMan
48171920:foatballman
72374030:ThyPiegon
65260280:carnahan6
44794271:Charm_err
19411197:19411197
16430143:BLUETIGER2600
56887508:corpsepar_Ti
33463926:EinTheJokester
61291036:ra1nedroplet
70502740:gnimag_v2
21598368:BabyBlowFly
82556461:VaniScotch
62242520:cyiscool101
57504517:Crevonic
19880769:H4UNT3R
37160970:Tearsy132
80153287:DragonHart9
8654540:nintendoplayer100
18147833:tk0005
6472714:Meowrails
80066539:GoldenJoxxer
66476596:SebastianTheHunter
27737601:Luka_Katsuhiro
21171488:joespikey5
58926671:Rybread103
49614393:pokemonx11
65294371:65294371
68313269:superkittyfarts
41580349:legomastercman
28195879:JunoBvnii
78073063:Pr1ncyBoi
80449578:80449578
78045564:StarfireSeed
86822619:Syrup_Squid
78491896:jp263ydhf
88066041:pewdsxpie
55164895:McqueenLighting
51794980:ramieldodo
68335681:Jet_Alone1
44910933:InvEn0t
10136935:kaydenad
65739472:Jessedude12345
71633940:budderingot45
26247467:DeathTapRblx
79523207:scoobyandashton
46215109:brandonc101
86951854:SuperAwsomeGamer15
18731446:yg237
73329801:Citrus_CJMo
13935625:candyman106
36844340:elphick6353
87150322:Firetailsi
34924873:xLittleDreamerx
77424044:oomaris
45609168:NeoTokyoCapsules
4788782:nedas5656
81495401:SodaEggnog
57188278:sky5012
26288840:IssNate0918
72825094:sheepishniko
2825835:nala779
21988591:CivicDice
21444073:alainlove100
47675344:Boafy
66450304:maladict3
73531651:FecalFunnie
21721718:verybigblockman
